# Heisenberg S=1/2 chain with anisotropy 
# L=32, J=1.0 , Delta=1.5, Delta_{2}  = 0.00, deltaJ = 0.40  deltah = 0.00
# Dynamical diffusion D(omega)
# Frequency omega/J, Dynamical diffusion D(omega)

 0.00000 0.11120
 0.00100 0.11116
 0.00200 0.11112
 0.00300 0.11116
 0.00400 0.11136
 0.00500 0.11172
 0.00600 0.11232
 0.00700 0.11296
 0.00800 0.11364
 0.00900 0.11420
 0.01000 0.11476
 0.01100 0.11528
 0.01200 0.11592
 0.01300 0.11676
 0.01400 0.11776
 0.01500 0.11888
 0.01600 0.11996
 0.01700 0.12092
 0.01800 0.12180
 0.01900 0.12264
 0.02000 0.12356
 0.02100 0.12460
 0.02200 0.12580
 0.02300 0.12712
 0.02400 0.12840
 0.02500 0.12960
 0.02600 0.13064
 0.02700 0.13156
 0.02800 0.13256
 0.02900 0.13364
 0.03000 0.13488
 0.03100 0.13628
 0.03200 0.13764
 0.03300 0.13888
 0.03400 0.14000
 0.03500 0.14100
 0.03600 0.14196
 0.03700 0.14308
 0.03800 0.14432
 0.03900 0.14572
 0.04000 0.14716
 0.04100 0.14848
 0.04200 0.14964
 0.04300 0.15068
 0.04400 0.15168
 0.04500 0.15276
 0.04600 0.15404
 0.04700 0.15544
 0.04800 0.15688
 0.04900 0.15828
 0.05000 0.15948
 0.05100 0.16056
 0.05200 0.16156
 0.05300 0.16264
 0.05400 0.16388
 0.05500 0.16528
 0.05600 0.16676
 0.05700 0.16820
 0.05800 0.16948
 0.05900 0.17056
 0.06000 0.17160
 0.06100 0.17272
 0.06200 0.17396
 0.06300 0.17536
 0.06400 0.17688
 0.06500 0.17832
 0.06600 0.17964
 0.06700 0.18084
 0.06800 0.18188
 0.06900 0.18300
 0.07000 0.18424
 0.07100 0.18568
 0.07200 0.18720
 0.07300 0.18868
 0.07400 0.19008
 0.07500 0.19132
 0.07600 0.19244
 0.07700 0.19356
 0.07800 0.19484
 0.07900 0.19624
 0.08000 0.19780
 0.08100 0.19936
 0.08200 0.20084
 0.08300 0.20216
 0.08400 0.20336
 0.08500 0.20452
 0.08600 0.20576
 0.08700 0.20720
 0.08800 0.20872
 0.08900 0.21032
 0.09000 0.21184
 0.09100 0.21324
 0.09200 0.21448
 0.09300 0.21564
 0.09400 0.21692
 0.09500 0.21832
 0.09600 0.21984
 0.09700 0.22148
 0.09800 0.22304
 0.09900 0.22452
 0.10000 0.22580
 0.10100 0.22704
 0.10200 0.22828
 0.10300 0.22964
 0.10400 0.23116
 0.10500 0.23280
 0.10600 0.23440
 0.10700 0.23588
 0.10800 0.23720
 0.10900 0.23840
 0.11000 0.23960
 0.11100 0.24088
 0.11200 0.24232
 0.11300 0.24388
 0.11400 0.24548
 0.11500 0.24696
 0.11600 0.24832
 0.11700 0.24948
 0.11800 0.25064
 0.11900 0.25184
 0.12000 0.25320
 0.12100 0.25468
 0.12200 0.25624
 0.12300 0.25776
 0.12400 0.25912
 0.12500 0.26028
 0.12600 0.26140
 0.12700 0.26252
 0.12800 0.26376
 0.12900 0.26516
 0.13000 0.26668
 0.13100 0.26812
 0.13200 0.26944
 0.13300 0.27056
 0.13400 0.27156
 0.13500 0.27248
 0.13600 0.27356
 0.13700 0.27480
 0.13800 0.27620
 0.13900 0.27760
 0.14000 0.27884
 0.14100 0.27988
 0.14200 0.28076
 0.14300 0.28156
 0.14400 0.28244
 0.14500 0.28356
 0.14600 0.28484
 0.14700 0.28616
 0.14800 0.28740
 0.14900 0.28836
 0.15000 0.28912
 0.15100 0.28976
 0.15200 0.29048
 0.15300 0.29140
 0.15400 0.29256
 0.15500 0.29376
 0.15600 0.29492
 0.15700 0.29576
 0.15800 0.29640
 0.15900 0.29684
 0.16000 0.29736
 0.16100 0.29808
 0.16200 0.29908
 0.16300 0.30020
 0.16400 0.30124
 0.16500 0.30200
 0.16600 0.30248
 0.16700 0.30276
 0.16800 0.30312
 0.16900 0.30364
 0.17000 0.30448
 0.17100 0.30548
 0.17200 0.30644
 0.17300 0.30712
 0.17400 0.30752
 0.17500 0.30764
 0.17600 0.30780
 0.17700 0.30820
 0.17800 0.30888
 0.17900 0.30976
 0.18000 0.31064
 0.18100 0.31128
 0.18200 0.31152
 0.18300 0.31156
 0.18400 0.31156
 0.18500 0.31176
 0.18600 0.31228
 0.18700 0.31308
 0.18800 0.31388
 0.18900 0.31440
 0.19000 0.31456
 0.19100 0.31444
 0.19200 0.31428
 0.19300 0.31432
 0.19400 0.31468
 0.19500 0.31532
 0.19600 0.31604
 0.19700 0.31648
 0.19800 0.31656
 0.19900 0.31632
 0.20000 0.31604
 0.20100 0.31592
 0.20200 0.31612
 0.20300 0.31668
 0.20400 0.31728
 0.20500 0.31764
 0.20600 0.31768
 0.20700 0.31740
 0.20800 0.31700
 0.20900 0.31680
 0.21000 0.31692
 0.21100 0.31736
 0.21200 0.31788
 0.21300 0.31824
 0.21400 0.31824
 0.21500 0.31788
 0.21600 0.31740
 0.21700 0.31708
 0.21800 0.31712
 0.21900 0.31744
 0.22000 0.31788
 0.22100 0.31820
 0.22200 0.31816
 0.22300 0.31780
 0.22400 0.31724
 0.22500 0.31684
 0.22600 0.31676
 0.22700 0.31700
 0.22800 0.31740
 0.22900 0.31768
 0.23000 0.31764
 0.23100 0.31724
 0.23200 0.31668
 0.23300 0.31624
 0.23400 0.31608
 0.23500 0.31624
 0.23600 0.31660
 0.23700 0.31684
 0.23800 0.31684
 0.23900 0.31648
 0.24000 0.31596
 0.24100 0.31552
 0.24200 0.31532
 0.24300 0.31544
 0.24400 0.31572
 0.24500 0.31600
 0.24600 0.31600
 0.24700 0.31568
 0.24800 0.31516
 0.24900 0.31468
 0.25000 0.31440
 0.25100 0.31444
 0.25200 0.31464
 0.25300 0.31488
 0.25400 0.31488
 0.25500 0.31460
 0.25600 0.31412
 0.25700 0.31368
 0.25800 0.31340
 0.25900 0.31336
 0.26000 0.31356
 0.26100 0.31380
 0.26200 0.31384
 0.26300 0.31368
 0.26400 0.31328
 0.26500 0.31288
 0.26600 0.31264
 0.26700 0.31264
 0.26800 0.31280
 0.26900 0.31300
 0.27000 0.31312
 0.27100 0.31300
 0.27200 0.31268
 0.27300 0.31232
 0.27400 0.31204
 0.27500 0.31196
 0.27600 0.31204
 0.27700 0.31220
 0.27800 0.31228
 0.27900 0.31216
 0.28000 0.31188
 0.28100 0.31152
 0.28200 0.31124
 0.28300 0.31108
 0.28400 0.31112
 0.28500 0.31120
 0.28600 0.31128
 0.28700 0.31124
 0.28800 0.31104
 0.28900 0.31076
 0.29000 0.31048
 0.29100 0.31032
 0.29200 0.31032
 0.29300 0.31040
 0.29400 0.31048
 0.29500 0.31048
 0.29600 0.31036
 0.29700 0.31016
 0.29800 0.30992
 0.29900 0.30976
 0.30000 0.30968
 0.30100 0.30972
 0.30200 0.30980
 0.30300 0.30984
 0.30400 0.30976
 0.30500 0.30960
 0.30600 0.30940
 0.30700 0.30920
 0.30800 0.30912
 0.30900 0.30908
 0.31000 0.30916
 0.31100 0.30924
 0.31200 0.30924
 0.31300 0.30920
 0.31400 0.30904
 0.31500 0.30884
 0.31600 0.30864
 0.31700 0.30856
 0.31800 0.30856
 0.31900 0.30860
 0.32000 0.30860
 0.32100 0.30856
 0.32200 0.30840
 0.32300 0.30816
 0.32400 0.30796
 0.32500 0.30780
 0.32600 0.30776
 0.32700 0.30784
 0.32800 0.30788
 0.32900 0.30788
 0.33000 0.30776
 0.33100 0.30752
 0.33200 0.30724
 0.33300 0.30704
 0.33400 0.30692
 0.33500 0.30692
 0.33600 0.30700
 0.33700 0.30700
 0.33800 0.30688
 0.33900 0.30664
 0.34000 0.30636
 0.34100 0.30612
 0.34200 0.30600
 0.34300 0.30600
 0.34400 0.30608
 0.34500 0.30612
 0.34600 0.30604
 0.34700 0.30584
 0.34800 0.30552
 0.34900 0.30524
 0.35000 0.30508
 0.35100 0.30508
 0.35200 0.30516
 0.35300 0.30520
 0.35400 0.30512
 0.35500 0.30488
 0.35600 0.30456
 0.35700 0.30420
 0.35800 0.30400
 0.35900 0.30392
 0.36000 0.30396
 0.36100 0.30400
 0.36200 0.30392
 0.36300 0.30372
 0.36400 0.30340
 0.36500 0.30304
 0.36600 0.30280
 0.36700 0.30272
 0.36800 0.30276
 0.36900 0.30280
 0.37000 0.30280
 0.37100 0.30260
 0.37200 0.30228
 0.37300 0.30196
 0.37400 0.30172
 0.37500 0.30160
 0.37600 0.30156
 0.37700 0.30160
 0.37800 0.30152
 0.37900 0.30132
 0.38000 0.30100
 0.38100 0.30064
 0.38200 0.30032
 0.38300 0.30016
 0.38400 0.30008
 0.38500 0.30008
 0.38600 0.29996
 0.38700 0.29980
 0.38800 0.29948
 0.38900 0.29912
 0.39000 0.29880
 0.39100 0.29860
 0.39200 0.29848
 0.39300 0.29840
 0.39400 0.29828
 0.39500 0.29808
 0.39600 0.29776
 0.39700 0.29736
 0.39800 0.29704
 0.39900 0.29680
 0.40000 0.29664
 0.40100 0.29648
 0.40200 0.29632
 0.40300 0.29612
 0.40400 0.29584
 0.40500 0.29552
 0.40600 0.29520
 0.40700 0.29496
 0.40800 0.29476
 0.40900 0.29460
 0.41000 0.29440
 0.41100 0.29416
 0.41200 0.29392
 0.41300 0.29364
 0.41400 0.29336
 0.41500 0.29312
 0.41600 0.29288
 0.41700 0.29268
 0.41800 0.29244
 0.41900 0.29220
 0.42000 0.29196
 0.42100 0.29172
 0.42200 0.29148
 0.42300 0.29124
 0.42400 0.29100
 0.42500 0.29072
 0.42600 0.29048
 0.42700 0.29024
 0.42800 0.29000
 0.42900 0.28984
 0.43000 0.28964
 0.43100 0.28944
 0.43200 0.28920
 0.43300 0.28888
 0.43400 0.28860
 0.43500 0.28832
 0.43600 0.28812
 0.43700 0.28792
 0.43800 0.28776
 0.43900 0.28756
 0.44000 0.28732
 0.44100 0.28696
 0.44200 0.28660
 0.44300 0.28632
 0.44400 0.28612
 0.44500 0.28596
 0.44600 0.28588
 0.44700 0.28572
 0.44800 0.28548
 0.44900 0.28516
 0.45000 0.28480
 0.45100 0.28448
 0.45200 0.28428
 0.45300 0.28416
 0.45400 0.28412
 0.45500 0.28400
 0.45600 0.28376
 0.45700 0.28344
 0.45800 0.28304
 0.45900 0.28272
 0.46000 0.28252
 0.46100 0.28248
 0.46200 0.28252
 0.46300 0.28248
 0.46400 0.28232
 0.46500 0.28200
 0.46600 0.28164
 0.46700 0.28132
 0.46800 0.28116
 0.46900 0.28112
 0.47000 0.28120
 0.47100 0.28120
 0.47200 0.28104
 0.47300 0.28072
 0.47400 0.28032
 0.47500 0.27996
 0.47600 0.27976
 0.47700 0.27968
 0.47800 0.27976
 0.47900 0.27976
 0.48000 0.27964
 0.48100 0.27932
 0.48200 0.27896
 0.48300 0.27860
 0.48400 0.27840
 0.48500 0.27840
 0.48600 0.27848
 0.48700 0.27856
 0.48800 0.27852
 0.48900 0.27824
 0.49000 0.27792
 0.49100 0.27756
 0.49200 0.27740
 0.49300 0.27736
 0.49400 0.27748
 0.49500 0.27760
 0.49600 0.27756
 0.49700 0.27740
 0.49800 0.27708
 0.49900 0.27676
 0.50000 0.27656
 0.50100 0.27652
 0.50200 0.27664
 0.50300 0.27676
 0.50400 0.27672
 0.50500 0.27656
 0.50600 0.27628
 0.50700 0.27596
 0.50800 0.27576
 0.50900 0.27572
 0.51000 0.27580
 0.51100 0.27592
 0.51200 0.27592
 0.51300 0.27584
 0.51400 0.27560
 0.51500 0.27532
 0.51600 0.27512
 0.51700 0.27508
 0.51800 0.27520
 0.51900 0.27532
 0.52000 0.27540
 0.52100 0.27532
 0.52200 0.27516
 0.52300 0.27492
 0.52400 0.27476
 0.52500 0.27472
 0.52600 0.27476
 0.52700 0.27488
 0.52800 0.27492
 0.52900 0.27488
 0.53000 0.27472
 0.53100 0.27452
 0.53200 0.27436
 0.53300 0.27428
 0.53400 0.27432
 0.53500 0.27440
 0.53600 0.27444
 0.53700 0.27444
 0.53800 0.27436
 0.53900 0.27420
 0.54000 0.27408
 0.54100 0.27400
 0.54200 0.27400
 0.54300 0.27404
 0.54400 0.27412
 0.54500 0.27412
 0.54600 0.27412
 0.54700 0.27404
 0.54800 0.27396
 0.54900 0.27392
 0.55000 0.27392
 0.55100 0.27396
 0.55200 0.27400
 0.55300 0.27408
 0.55400 0.27412
 0.55500 0.27412
 0.55600 0.27408
 0.55700 0.27408
 0.55800 0.27408
 0.55900 0.27408
 0.56000 0.27416
 0.56100 0.27424
 0.56200 0.27432
 0.56300 0.27436
 0.56400 0.27440
 0.56500 0.27444
 0.56600 0.27440
 0.56700 0.27440
 0.56800 0.27444
 0.56900 0.27452
 0.57000 0.27464
 0.57100 0.27476
 0.57200 0.27488
 0.57300 0.27492
 0.57400 0.27492
 0.57500 0.27492
 0.57600 0.27496
 0.57700 0.27508
 0.57800 0.27524
 0.57900 0.27540
 0.58000 0.27556
 0.58100 0.27568
 0.58200 0.27572
 0.58300 0.27572
 0.58400 0.27572
 0.58500 0.27580
 0.58600 0.27600
 0.58700 0.27620
 0.58800 0.27644
 0.58900 0.27656
 0.59000 0.27668
 0.59100 0.27668
 0.59200 0.27672
 0.59300 0.27684
 0.59400 0.27704
 0.59500 0.27732
 0.59600 0.27760
 0.59700 0.27780
 0.59800 0.27792
 0.59900 0.27800
 0.60000 0.27808
 0.60100 0.27820
 0.60200 0.27840
 0.60300 0.27872
 0.60400 0.27908
 0.60500 0.27940
 0.60600 0.27960
 0.60700 0.27976
 0.60800 0.27984
 0.60900 0.28000
 0.61000 0.28020
 0.61100 0.28052
 0.61200 0.28092
 0.61300 0.28124
 0.61400 0.28156
 0.61500 0.28176
 0.61600 0.28192
 0.61700 0.28208
 0.61800 0.28232
 0.61900 0.28268
 0.62000 0.28312
 0.62100 0.28352
 0.62200 0.28388
 0.62300 0.28416
 0.62400 0.28436
 0.62500 0.28456
 0.62600 0.28484
 0.62700 0.28516
 0.62800 0.28560
 0.62900 0.28608
 0.63000 0.28652
 0.63100 0.28688
 0.63200 0.28716
 0.63300 0.28736
 0.63400 0.28760
 0.63500 0.28792
 0.63600 0.28832
 0.63700 0.28880
 0.63800 0.28932
 0.63900 0.28972
 0.64000 0.29008
 0.64100 0.29036
 0.64200 0.29060
 0.64300 0.29092
 0.64400 0.29132
 0.64500 0.29184
 0.64600 0.29240
 0.64700 0.29296
 0.64800 0.29340
 0.64900 0.29372
 0.65000 0.29400
 0.65100 0.29432
 0.65200 0.29472
 0.65300 0.29524
 0.65400 0.29588
 0.65500 0.29652
 0.65600 0.29704
 0.65700 0.29748
 0.65800 0.29780
 0.65900 0.29808
 0.66000 0.29848
 0.66100 0.29904
 0.66200 0.29972
 0.66300 0.30044
 0.66400 0.30108
 0.66500 0.30156
 0.66600 0.30188
 0.66700 0.30216
 0.66800 0.30252
 0.66900 0.30304
 0.67000 0.30372
 0.67100 0.30452
 0.67200 0.30524
 0.67300 0.30580
 0.67400 0.30616
 0.67500 0.30644
 0.67600 0.30672
 0.67700 0.30720
 0.67800 0.30792
 0.67900 0.30876
 0.68000 0.30956
 0.68100 0.31020
 0.68200 0.31060
 0.68300 0.31088
 0.68400 0.31116
 0.68500 0.31164
 0.68600 0.31232
 0.68700 0.31324
 0.68800 0.31412
 0.68900 0.31484
 0.69000 0.31532
 0.69100 0.31564
 0.69200 0.31588
 0.69300 0.31632
 0.69400 0.31704
 0.69500 0.31796
 0.69600 0.31892
 0.69700 0.31976
 0.69800 0.32028
 0.69900 0.32060
 0.70000 0.32088
 0.70100 0.32128
 0.70200 0.32200
 0.70300 0.32292
 0.70400 0.32392
 0.70500 0.32480
 0.70600 0.32540
 0.70700 0.32576
 0.70800 0.32600
 0.70900 0.32636
 0.71000 0.32700
 0.71100 0.32792
 0.71200 0.32892
 0.71300 0.32984
 0.71400 0.33048
 0.71500 0.33084
 0.71600 0.33108
 0.71700 0.33140
 0.71800 0.33204
 0.71900 0.33292
 0.72000 0.33392
 0.72100 0.33488
 0.72200 0.33556
 0.72300 0.33596
 0.72400 0.33624
 0.72500 0.33656
 0.72600 0.33716
 0.72700 0.33800
 0.72800 0.33900
 0.72900 0.33992
 0.73000 0.34064
 0.73100 0.34104
 0.73200 0.34132
 0.73300 0.34164
 0.73400 0.34212
 0.73500 0.34292
 0.73600 0.34388
 0.73700 0.34484
 0.73800 0.34560
 0.73900 0.34608
 0.74000 0.34640
 0.74100 0.34672
 0.74200 0.34724
 0.74300 0.34800
 0.74400 0.34892
 0.74500 0.34988
 0.74600 0.35064
 0.74700 0.35120
 0.74800 0.35156
 0.74900 0.35196
 0.75000 0.35244
 0.75100 0.35316
 0.75200 0.35404
 0.75300 0.35496
 0.75400 0.35572
 0.75500 0.35628
 0.75600 0.35672
 0.75700 0.35708
 0.75800 0.35752
 0.75900 0.35816
 0.76000 0.35896
 0.76100 0.35976
 0.76200 0.36048
 0.76300 0.36104
 0.76400 0.36148
 0.76500 0.36184
 0.76600 0.36228
 0.76700 0.36280
 0.76800 0.36352
 0.76900 0.36424
 0.77000 0.36492
 0.77100 0.36552
 0.77200 0.36596
 0.77300 0.36640
 0.77400 0.36684
 0.77500 0.36736
 0.77600 0.36800
 0.77700 0.36868
 0.77800 0.36932
 0.77900 0.36988
 0.78000 0.37040
 0.78100 0.37084
 0.78200 0.37128
 0.78300 0.37176
 0.78400 0.37232
 0.78500 0.37288
 0.78600 0.37348
 0.78700 0.37404
 0.78800 0.37456
 0.78900 0.37504
 0.79000 0.37552
 0.79100 0.37600
 0.79200 0.37652
 0.79300 0.37704
 0.79400 0.37756
 0.79500 0.37812
 0.79600 0.37864
 0.79700 0.37916
 0.79800 0.37968
 0.79900 0.38016
 0.80000 0.38060
 0.80100 0.38104
 0.80200 0.38148
 0.80300 0.38196
 0.80400 0.38248
 0.80500 0.38300
 0.80600 0.38348
 0.80700 0.38392
 0.80800 0.38432
 0.80900 0.38468
 0.81000 0.38504
 0.81100 0.38544
 0.81200 0.38592
 0.81300 0.38644
 0.81400 0.38692
 0.81500 0.38732
 0.81600 0.38764
 0.81700 0.38792
 0.81800 0.38816
 0.81900 0.38848
 0.82000 0.38884
 0.82100 0.38928
 0.82200 0.38972
 0.82300 0.39012
 0.82400 0.39040
 0.82500 0.39056
 0.82600 0.39072
 0.82700 0.39096
 0.82800 0.39128
 0.82900 0.39172
 0.83000 0.39220
 0.83100 0.39260
 0.83200 0.39292
 0.83300 0.39308
 0.83400 0.39324
 0.83500 0.39340
 0.83600 0.39368
 0.83700 0.39404
 0.83800 0.39452
 0.83900 0.39492
 0.84000 0.39524
 0.84100 0.39540
 0.84200 0.39544
 0.84300 0.39552
 0.84400 0.39568
 0.84500 0.39596
 0.84600 0.39636
 0.84700 0.39676
 0.84800 0.39704
 0.84900 0.39720
 0.85000 0.39720
 0.85100 0.39720
 0.85200 0.39728
 0.85300 0.39748
 0.85400 0.39784
 0.85500 0.39824
 0.85600 0.39856
 0.85700 0.39872
 0.85800 0.39872
 0.85900 0.39864
 0.86000 0.39864
 0.86100 0.39880
 0.86200 0.39908
 0.86300 0.39948
 0.86400 0.39980
 0.86500 0.40000
 0.86600 0.40004
 0.86700 0.39996
 0.86800 0.39988
 0.86900 0.39996
 0.87000 0.40020
 0.87100 0.40060
 0.87200 0.40096
 0.87300 0.40112
 0.87400 0.40112
 0.87500 0.40096
 0.87600 0.40080
 0.87700 0.40076
 0.87800 0.40088
 0.87900 0.40120
 0.88000 0.40152
 0.88100 0.40172
 0.88200 0.40172
 0.88300 0.40152
 0.88400 0.40132
 0.88500 0.40120
 0.88600 0.40132
 0.88700 0.40160
 0.88800 0.40196
 0.88900 0.40220
 0.89000 0.40224
 0.89100 0.40208
 0.89200 0.40180
 0.89300 0.40164
 0.89400 0.40168
 0.89500 0.40192
 0.89600 0.40224
 0.89700 0.40248
 0.89800 0.40252
 0.89900 0.40232
 0.90000 0.40204
 0.90100 0.40176
 0.90200 0.40172
 0.90300 0.40188
 0.90400 0.40216
 0.90500 0.40240
 0.90600 0.40244
 0.90700 0.40228
 0.90800 0.40196
 0.90900 0.40168
 0.91000 0.40160
 0.91100 0.40172
 0.91200 0.40204
 0.91300 0.40236
 0.91400 0.40248
 0.91500 0.40240
 0.91600 0.40216
 0.91700 0.40192
 0.91800 0.40184
 0.91900 0.40196
 0.92000 0.40224
 0.92100 0.40256
 0.92200 0.40272
 0.92300 0.40264
 0.92400 0.40240
 0.92500 0.40212
 0.92600 0.40196
 0.92700 0.40200
 0.92800 0.40224
 0.92900 0.40252
 0.93000 0.40268
 0.93100 0.40268
 0.93200 0.40248
 0.93300 0.40224
 0.93400 0.40212
 0.93500 0.40216
 0.93600 0.40240
 0.93700 0.40268
 0.93800 0.40288
 0.93900 0.40292
 0.94000 0.40280
 0.94100 0.40260
 0.94200 0.40244
 0.94300 0.40248
 0.94400 0.40268
 0.94500 0.40292
 0.94600 0.40316
 0.94700 0.40320
 0.94800 0.40312
 0.94900 0.40296
 0.95000 0.40284
 0.95100 0.40284
 0.95200 0.40296
 0.95300 0.40320
 0.95400 0.40340
 0.95500 0.40348
 0.95600 0.40344
 0.95700 0.40332
 0.95800 0.40324
 0.95900 0.40320
 0.96000 0.40332
 0.96100 0.40352
 0.96200 0.40368
 0.96300 0.40384
 0.96400 0.40384
 0.96500 0.40380
 0.96600 0.40372
 0.96700 0.40376
 0.96800 0.40384
 0.96900 0.40404
 0.97000 0.40424
 0.97100 0.40440
 0.97200 0.40448
 0.97300 0.40448
 0.97400 0.40448
 0.97500 0.40448
 0.97600 0.40456
 0.97700 0.40468
 0.97800 0.40480
 0.97900 0.40492
 0.98000 0.40500
 0.98100 0.40504
 0.98200 0.40504
 0.98300 0.40508
 0.98400 0.40516
 0.98500 0.40524
 0.98600 0.40536
 0.98700 0.40552
 0.98800 0.40560
 0.98900 0.40568
 0.99000 0.40576
 0.99100 0.40580
 0.99200 0.40588
 0.99300 0.40592
 0.99400 0.40600
 0.99500 0.40612
 0.99600 0.40620
 0.99700 0.40628
 0.99800 0.40636
 0.99900 0.40644
 1.00000 0.40648
 1.00100 0.40652
 1.00200 0.40660
 1.00300 0.40664
 1.00400 0.40676
 1.00500 0.40692
 1.00600 0.40708
 1.00700 0.40724
 1.00800 0.40732
 1.00900 0.40740
 1.01000 0.40740
 1.01100 0.40744
 1.01200 0.40752
 1.01300 0.40768
 1.01400 0.40784
 1.01500 0.40800
 1.01600 0.40812
 1.01700 0.40816
 1.01800 0.40816
 1.01900 0.40816
 1.02000 0.40824
 1.02100 0.40836
 1.02200 0.40856
 1.02300 0.40876
 1.02400 0.40888
 1.02500 0.40892
 1.02600 0.40888
 1.02700 0.40884
 1.02800 0.40884
 1.02900 0.40900
 1.03000 0.40920
 1.03100 0.40944
 1.03200 0.40964
 1.03300 0.40968
 1.03400 0.40964
 1.03500 0.40956
 1.03600 0.40956
 1.03700 0.40968
 1.03800 0.40992
 1.03900 0.41016
 1.04000 0.41036
 1.04100 0.41044
 1.04200 0.41040
 1.04300 0.41032
 1.04400 0.41028
 1.04500 0.41040
 1.04600 0.41068
 1.04700 0.41096
 1.04800 0.41124
 1.04900 0.41132
 1.05000 0.41132
 1.05100 0.41120
 1.05200 0.41116
 1.05300 0.41128
 1.05400 0.41156
 1.05500 0.41188
 1.05600 0.41220
 1.05700 0.41236
 1.05800 0.41236
 1.05900 0.41224
 1.06000 0.41220
 1.06100 0.41228
 1.06200 0.41256
 1.06300 0.41292
 1.06400 0.41324
 1.06500 0.41344
 1.06600 0.41344
 1.06700 0.41336
 1.06800 0.41328
 1.06900 0.41336
 1.07000 0.41364
 1.07100 0.41400
 1.07200 0.41436
 1.07300 0.41456
 1.07400 0.41456
 1.07500 0.41444
 1.07600 0.41436
 1.07700 0.41436
 1.07800 0.41460
 1.07900 0.41496
 1.08000 0.41532
 1.08100 0.41548
 1.08200 0.41548
 1.08300 0.41536
 1.08400 0.41520
 1.08500 0.41520
 1.08600 0.41536
 1.08700 0.41568
 1.08800 0.41604
 1.08900 0.41620
 1.09000 0.41620
 1.09100 0.41604
 1.09200 0.41588
 1.09300 0.41580
 1.09400 0.41596
 1.09500 0.41624
 1.09600 0.41660
 1.09700 0.41680
 1.09800 0.41684
