# Heisenberg S=1/2 chain with anisotropy 
# L=32, J=1.0 , Delta=1.5, Delta_{2}  = 0.00, deltaJ = 0.20  deltah = 0.00
# Integrated dynamical diffusion
# Frequency omega/J, Integrated dynamical diffusion

 0.00000 0.00000
 0.00100 0.00008
 0.00200 0.00020
 0.00300 0.00032
 0.00400 0.00044
 0.00500 0.00060
 0.00600 0.00068
 0.00700 0.00076
 0.00800 0.00088
 0.00900 0.00096
 0.01000 0.00104
 0.01100 0.00120
 0.01200 0.00132
 0.01300 0.00148
 0.01400 0.00160
 0.01500 0.00168
 0.01600 0.00180
 0.01700 0.00188
 0.01800 0.00200
 0.01900 0.00212
 0.02000 0.00228
 0.02100 0.00244
 0.02200 0.00260
 0.02300 0.00268
 0.02400 0.00280
 0.02500 0.00292
 0.02600 0.00304
 0.02700 0.00320
 0.02800 0.00336
 0.02900 0.00356
 0.03000 0.00372
 0.03100 0.00384
 0.03200 0.00392
 0.03300 0.00408
 0.03400 0.00420
 0.03500 0.00440
 0.03600 0.00456
 0.03700 0.00480
 0.03800 0.00496
 0.03900 0.00508
 0.04000 0.00524
 0.04100 0.00536
 0.04200 0.00552
 0.04300 0.00572
 0.04400 0.00596
 0.04500 0.00620
 0.04600 0.00640
 0.04700 0.00652
 0.04800 0.00668
 0.04900 0.00680
 0.05000 0.00700
 0.05100 0.00724
 0.05200 0.00748
 0.05300 0.00776
 0.05400 0.00796
 0.05500 0.00812
 0.05600 0.00828
 0.05700 0.00840
 0.05800 0.00860
 0.05900 0.00888
 0.06000 0.00916
 0.06100 0.00948
 0.06200 0.00972
 0.06300 0.00988
 0.06400 0.01000
 0.06500 0.01016
 0.06600 0.01040
 0.06700 0.01068
 0.06800 0.01104
 0.06900 0.01136
 0.07000 0.01160
 0.07100 0.01176
 0.07200 0.01192
 0.07300 0.01208
 0.07400 0.01232
 0.07500 0.01268
 0.07600 0.01304
 0.07700 0.01336
 0.07800 0.01360
 0.07900 0.01380
 0.08000 0.01396
 0.08100 0.01412
 0.08200 0.01440
 0.08300 0.01476
 0.08400 0.01516
 0.08500 0.01552
 0.08600 0.01580
 0.08700 0.01596
 0.08800 0.01612
 0.08900 0.01632
 0.09000 0.01660
 0.09100 0.01700
 0.09200 0.01744
 0.09300 0.01780
 0.09400 0.01812
 0.09500 0.01828
 0.09600 0.01844
 0.09700 0.01864
 0.09800 0.01896
 0.09900 0.01940
 0.10000 0.01988
 0.10100 0.02028
 0.10200 0.02056
 0.10300 0.02072
 0.10400 0.02092
 0.10500 0.02112
 0.10600 0.02148
 0.10700 0.02196
 0.10800 0.02244
 0.10900 0.02288
 0.11000 0.02316
 0.11100 0.02336
 0.11200 0.02352
 0.11300 0.02380
 0.11400 0.02416
 0.11500 0.02468
 0.11600 0.02520
 0.11700 0.02564
 0.11800 0.02592
 0.11900 0.02612
 0.12000 0.02632
 0.12100 0.02660
 0.12200 0.02704
 0.12300 0.02760
 0.12400 0.02812
 0.12500 0.02856
 0.12600 0.02888
 0.12700 0.02908
 0.12800 0.02928
 0.12900 0.02964
 0.13000 0.03008
 0.13100 0.03068
 0.13200 0.03124
 0.13300 0.03168
 0.13400 0.03204
 0.13500 0.03224
 0.13600 0.03248
 0.13700 0.03284
 0.13800 0.03336
 0.13900 0.03396
 0.14000 0.03452
 0.14100 0.03500
 0.14200 0.03536
 0.14300 0.03560
 0.14400 0.03584
 0.14500 0.03628
 0.14600 0.03680
 0.14700 0.03744
 0.14800 0.03804
 0.14900 0.03852
 0.15000 0.03888
 0.15100 0.03916
 0.15200 0.03944
 0.15300 0.03992
 0.15400 0.04048
 0.15500 0.04116
 0.15600 0.04176
 0.15700 0.04228
 0.15800 0.04264
 0.15900 0.04292
 0.16000 0.04324
 0.16100 0.04380
 0.16200 0.04444
 0.16300 0.04504
 0.16400 0.04568
 0.16500 0.04620
 0.16600 0.04660
 0.16700 0.04692
 0.16800 0.04732
 0.16900 0.04788
 0.17000 0.04856
 0.17100 0.04916
 0.17200 0.04980
 0.17300 0.05036
 0.17400 0.05080
 0.17500 0.05116
 0.17600 0.05160
 0.17700 0.05220
 0.17800 0.05292
 0.17900 0.05352
 0.18000 0.05416
 0.18100 0.05476
 0.18200 0.05520
 0.18300 0.05560
 0.18400 0.05608
 0.18500 0.05676
 0.18600 0.05748
 0.18700 0.05804
 0.18800 0.05868
 0.18900 0.05932
 0.19000 0.05980
 0.19100 0.06024
 0.19200 0.06080
 0.19300 0.06148
 0.19400 0.06220
 0.19500 0.06276
 0.19600 0.06340
 0.19700 0.06404
 0.19800 0.06456
 0.19900 0.06508
 0.20000 0.06564
 0.20100 0.06636
 0.20200 0.06704
 0.20300 0.06760
 0.20400 0.06824
 0.20500 0.06892
 0.20600 0.06948
 0.20700 0.07004
 0.20800 0.07064
 0.20900 0.07136
 0.21000 0.07200
 0.21100 0.07256
 0.21200 0.07320
 0.21300 0.07388
 0.21400 0.07452
 0.21500 0.07508
 0.21600 0.07572
 0.21700 0.07644
 0.21800 0.07704
 0.21900 0.07756
 0.22000 0.07820
 0.22100 0.07896
 0.22200 0.07960
 0.22300 0.08016
 0.22400 0.08080
 0.22500 0.08152
 0.22600 0.08208
 0.22700 0.08260
 0.22800 0.08320
 0.22900 0.08400
 0.23000 0.08464
 0.23100 0.08524
 0.23200 0.08588
 0.23300 0.08656
 0.23400 0.08708
 0.23500 0.08760
 0.23600 0.08820
 0.23700 0.08900
 0.23800 0.08968
 0.23900 0.09024
 0.24000 0.09088
 0.24100 0.09152
 0.24200 0.09204
 0.24300 0.09252
 0.24400 0.09312
 0.24500 0.09392
 0.24600 0.09460
 0.24700 0.09516
 0.24800 0.09580
 0.24900 0.09640
 0.25000 0.09688
 0.25100 0.09736
 0.25200 0.09796
 0.25300 0.09876
 0.25400 0.09940
 0.25500 0.10000
 0.25600 0.10060
 0.25700 0.10116
 0.25800 0.10164
 0.25900 0.10212
 0.26000 0.10272
 0.26100 0.10344
 0.26200 0.10412
 0.26300 0.10468
 0.26400 0.10532
 0.26500 0.10580
 0.26600 0.10628
 0.26700 0.10676
 0.26800 0.10736
 0.26900 0.10804
 0.27000 0.10872
 0.27100 0.10932
 0.27200 0.10988
 0.27300 0.11036
 0.27400 0.11084
 0.27500 0.11136
 0.27600 0.11188
 0.27700 0.11256
 0.27800 0.11324
 0.27900 0.11384
 0.28000 0.11440
 0.28100 0.11484
 0.28200 0.11532
 0.28300 0.11584
 0.28400 0.11632
 0.28500 0.11696
 0.28600 0.11764
 0.28700 0.11824
 0.28800 0.11880
 0.28900 0.11924
 0.29000 0.11972
 0.29100 0.12024
 0.29200 0.12068
 0.29300 0.12128
 0.29400 0.12200
 0.29500 0.12260
 0.29600 0.12312
 0.29700 0.12356
 0.29800 0.12408
 0.29900 0.12452
 0.30000 0.12496
 0.30100 0.12552
 0.30200 0.12624
 0.30300 0.12688
 0.30400 0.12740
 0.30500 0.12784
 0.30600 0.12836
 0.30700 0.12880
 0.30800 0.12916
 0.30900 0.12972
 0.31000 0.13048
 0.31100 0.13112
 0.31200 0.13164
 0.31300 0.13204
 0.31400 0.13260
 0.31500 0.13300
 0.31600 0.13336
 0.31700 0.13392
 0.31800 0.13464
 0.31900 0.13532
 0.32000 0.13580
 0.32100 0.13628
 0.32200 0.13676
 0.32300 0.13712
 0.32400 0.13752
 0.32500 0.13804
 0.32600 0.13880
 0.32700 0.13948
 0.32800 0.13996
 0.32900 0.14044
 0.33000 0.14088
 0.33100 0.14128
 0.33200 0.14164
 0.33300 0.14216
 0.33400 0.14292
 0.33500 0.14360
 0.33600 0.14412
 0.33700 0.14460
 0.33800 0.14500
 0.33900 0.14536
 0.34000 0.14576
 0.34100 0.14628
 0.34200 0.14700
 0.34300 0.14772
 0.34400 0.14828
 0.34500 0.14872
 0.34600 0.14908
 0.34700 0.14948
 0.34800 0.14984
 0.34900 0.15036
 0.35000 0.15108
 0.35100 0.15184
 0.35200 0.15240
 0.35300 0.15280
 0.35400 0.15320
 0.35500 0.15356
 0.35600 0.15396
 0.35700 0.15448
 0.35800 0.15520
 0.35900 0.15600
 0.36000 0.15652
 0.36100 0.15692
 0.36200 0.15728
 0.36300 0.15764
 0.36400 0.15808
 0.36500 0.15860
 0.36600 0.15932
 0.36700 0.16012
 0.36800 0.16064
 0.36900 0.16100
 0.37000 0.16136
 0.37100 0.16176
 0.37200 0.16216
 0.37300 0.16272
 0.37400 0.16344
 0.37500 0.16420
 0.37600 0.16472
 0.37700 0.16508
 0.37800 0.16544
 0.37900 0.16588
 0.38000 0.16628
 0.38100 0.16688
 0.38200 0.16756
 0.38300 0.16832
 0.38400 0.16884
 0.38500 0.16920
 0.38600 0.16956
 0.38700 0.16996
 0.38800 0.17040
 0.38900 0.17104
 0.39000 0.17168
 0.39100 0.17240
 0.39200 0.17292
 0.39300 0.17328
 0.39400 0.17364
 0.39500 0.17408
 0.39600 0.17456
 0.39700 0.17520
 0.39800 0.17584
 0.39900 0.17652
 0.40000 0.17700
 0.40100 0.17740
 0.40200 0.17776
 0.40300 0.17820
 0.40400 0.17872
 0.40500 0.17936
 0.40600 0.17996
 0.40700 0.18060
 0.40800 0.18108
 0.40900 0.18148
 0.41000 0.18188
 0.41100 0.18236
 0.41200 0.18288
 0.41300 0.18348
 0.41400 0.18408
 0.41500 0.18468
 0.41600 0.18516
 0.41700 0.18560
 0.41800 0.18596
 0.41900 0.18648
 0.42000 0.18704
 0.42100 0.18764
 0.42200 0.18820
 0.42300 0.18876
 0.42400 0.18928
 0.42500 0.18968
 0.42600 0.19012
 0.42700 0.19064
 0.42800 0.19120
 0.42900 0.19180
 0.43000 0.19236
 0.43100 0.19284
 0.43200 0.19336
 0.43300 0.19380
 0.43400 0.19424
 0.43500 0.19480
 0.43600 0.19536
 0.43700 0.19596
 0.43800 0.19648
 0.43900 0.19696
 0.44000 0.19744
 0.44100 0.19792
 0.44200 0.19840
 0.44300 0.19892
 0.44400 0.19952
 0.44500 0.20008
 0.44600 0.20056
 0.44700 0.20100
 0.44800 0.20152
 0.44900 0.20200
 0.45000 0.20252
 0.45100 0.20308
 0.45200 0.20364
 0.45300 0.20420
 0.45400 0.20468
 0.45500 0.20508
 0.45600 0.20560
 0.45700 0.20612
 0.45800 0.20664
 0.45900 0.20720
 0.46000 0.20776
 0.46100 0.20832
 0.46200 0.20872
 0.46300 0.20916
 0.46400 0.20968
 0.46500 0.21020
 0.46600 0.21072
 0.46700 0.21128
 0.46800 0.21188
 0.46900 0.21240
 0.47000 0.21280
 0.47100 0.21320
 0.47200 0.21372
 0.47300 0.21428
 0.47400 0.21480
 0.47500 0.21536
 0.47600 0.21596
 0.47700 0.21648
 0.47800 0.21684
 0.47900 0.21724
 0.48000 0.21780
 0.48100 0.21832
 0.48200 0.21884
 0.48300 0.21948
 0.48400 0.22004
 0.48500 0.22052
 0.48600 0.22088
 0.48700 0.22128
 0.48800 0.22184
 0.48900 0.22236
 0.49000 0.22292
 0.49100 0.22356
 0.49200 0.22412
 0.49300 0.22460
 0.49400 0.22492
 0.49500 0.22532
 0.49600 0.22588
 0.49700 0.22640
 0.49800 0.22696
 0.49900 0.22760
 0.50000 0.22816
 0.50100 0.22864
 0.50200 0.22896
 0.50300 0.22936
 0.50400 0.22992
 0.50500 0.23044
 0.50600 0.23100
 0.50700 0.23164
 0.50800 0.23220
 0.50900 0.23264
 0.51000 0.23300
 0.51100 0.23340
 0.51200 0.23392
 0.51300 0.23444
 0.51400 0.23504
 0.51500 0.23564
 0.51600 0.23620
 0.51700 0.23668
 0.51800 0.23700
 0.51900 0.23736
 0.52000 0.23788
 0.52100 0.23840
 0.52200 0.23904
 0.52300 0.23964
 0.52400 0.24020
 0.52500 0.24068
 0.52600 0.24100
 0.52700 0.24136
 0.52800 0.24188
 0.52900 0.24240
 0.53000 0.24304
 0.53100 0.24364
 0.53200 0.24420
 0.53300 0.24468
 0.53400 0.24500
 0.53500 0.24536
 0.53600 0.24584
 0.53700 0.24640
 0.53800 0.24704
 0.53900 0.24760
 0.54000 0.24824
 0.54100 0.24868
 0.54200 0.24896
 0.54300 0.24932
 0.54400 0.24984
 0.54500 0.25040
 0.54600 0.25100
 0.54700 0.25156
 0.54800 0.25224
 0.54900 0.25264
 0.55000 0.25296
 0.55100 0.25332
 0.55200 0.25380
 0.55300 0.25440
 0.55400 0.25496
 0.55500 0.25556
 0.55600 0.25620
 0.55700 0.25660
 0.55800 0.25692
 0.55900 0.25728
 0.56000 0.25776
 0.56100 0.25836
 0.56200 0.25896
 0.56300 0.25956
 0.56400 0.26020
 0.56500 0.26060
 0.56600 0.26088
 0.56700 0.26124
 0.56800 0.26176
 0.56900 0.26236
 0.57000 0.26292
 0.57100 0.26352
 0.57200 0.26416
 0.57300 0.26452
 0.57400 0.26484
 0.57500 0.26524
 0.57600 0.26572
 0.57700 0.26632
 0.57800 0.26692
 0.57900 0.26748
 0.58000 0.26812
 0.58100 0.26852
 0.58200 0.26884
 0.58300 0.26920
 0.58400 0.26972
 0.58500 0.27032
 0.58600 0.27088
 0.58700 0.27148
 0.58800 0.27208
 0.58900 0.27248
 0.59000 0.27280
 0.59100 0.27320
 0.59200 0.27372
 0.59300 0.27432
 0.59400 0.27488
 0.59500 0.27544
 0.59600 0.27600
 0.59700 0.27644
 0.59800 0.27680
 0.59900 0.27720
 0.60000 0.27772
 0.60100 0.27832
 0.60200 0.27884
 0.60300 0.27944
 0.60400 0.27996
 0.60500 0.28040
 0.60600 0.28076
 0.60700 0.28124
 0.60800 0.28176
 0.60900 0.28228
 0.61000 0.28280
 0.61100 0.28340
 0.61200 0.28392
 0.61300 0.28436
 0.61400 0.28476
 0.61500 0.28524
 0.61600 0.28576
 0.61700 0.28628
 0.61800 0.28680
 0.61900 0.28736
 0.62000 0.28788
 0.62100 0.28836
 0.62200 0.28876
 0.62300 0.28928
 0.62400 0.28976
 0.62500 0.29024
 0.62600 0.29076
 0.62700 0.29136
 0.62800 0.29188
 0.62900 0.29232
 0.63000 0.29276
 0.63100 0.29328
 0.63200 0.29372
 0.63300 0.29420
 0.63400 0.29472
 0.63500 0.29532
 0.63600 0.29584
 0.63700 0.29628
 0.63800 0.29680
 0.63900 0.29732
 0.64000 0.29772
 0.64100 0.29812
 0.64200 0.29872
 0.64300 0.29928
 0.64400 0.29980
 0.64500 0.30028
 0.64600 0.30080
 0.64700 0.30128
 0.64800 0.30168
 0.64900 0.30208
 0.65000 0.30268
 0.65100 0.30324
 0.65200 0.30376
 0.65300 0.30424
 0.65400 0.30480
 0.65500 0.30524
 0.65600 0.30560
 0.65700 0.30604
 0.65800 0.30664
 0.65900 0.30716
 0.66000 0.30772
 0.66100 0.30824
 0.66200 0.30876
 0.66300 0.30920
 0.66400 0.30956
 0.66500 0.30996
 0.66600 0.31056
 0.66700 0.31112
 0.66800 0.31168
 0.66900 0.31220
 0.67000 0.31268
 0.67100 0.31316
 0.67200 0.31348
 0.67300 0.31388
 0.67400 0.31448
 0.67500 0.31504
 0.67600 0.31564
 0.67700 0.31616
 0.67800 0.31660
 0.67900 0.31704
 0.68000 0.31736
 0.68100 0.31780
 0.68200 0.31840
 0.68300 0.31900
 0.68400 0.31956
 0.68500 0.32008
 0.68600 0.32052
 0.68700 0.32092
 0.68800 0.32128
 0.68900 0.32168
 0.69000 0.32232
 0.69100 0.32292
 0.69200 0.32348
 0.69300 0.32396
 0.69400 0.32440
 0.69500 0.32480
 0.69600 0.32512
 0.69700 0.32560
 0.69800 0.32620
 0.69900 0.32684
 0.70000 0.32736
 0.70100 0.32784
 0.70200 0.32828
 0.70300 0.32864
 0.70400 0.32900
 0.70500 0.32948
 0.70600 0.33012
 0.70700 0.33072
 0.70800 0.33124
 0.70900 0.33172
 0.71000 0.33212
 0.71100 0.33248
 0.71200 0.33284
 0.71300 0.33332
 0.71400 0.33400
 0.71500 0.33456
 0.71600 0.33508
 0.71700 0.33556
 0.71800 0.33596
 0.71900 0.33632
 0.72000 0.33672
 0.72100 0.33720
 0.72200 0.33784
 0.72300 0.33844
 0.72400 0.33892
 0.72500 0.33940
 0.72600 0.33980
 0.72700 0.34012
 0.72800 0.34056
 0.72900 0.34104
 0.73000 0.34168
 0.73100 0.34224
 0.73200 0.34276
 0.73300 0.34324
 0.73400 0.34360
 0.73500 0.34392
 0.73600 0.34436
 0.73700 0.34488
 0.73800 0.34552
 0.73900 0.34608
 0.74000 0.34656
 0.74100 0.34704
 0.74200 0.34740
 0.74300 0.34776
 0.74400 0.34820
 0.74500 0.34868
 0.74600 0.34932
 0.74700 0.34988
 0.74800 0.35036
 0.74900 0.35084
 0.75000 0.35120
 0.75100 0.35156
 0.75200 0.35196
 0.75300 0.35248
 0.75400 0.35312
 0.75500 0.35368
 0.75600 0.35416
 0.75700 0.35460
 0.75800 0.35500
 0.75900 0.35536
 0.76000 0.35576
 0.76100 0.35628
 0.76200 0.35688
 0.76300 0.35748
 0.76400 0.35792
 0.76500 0.35836
 0.76600 0.35876
 0.76700 0.35912
 0.76800 0.35948
 0.76900 0.36004
 0.77000 0.36064
 0.77100 0.36124
 0.77200 0.36168
 0.77300 0.36212
 0.77400 0.36252
 0.77500 0.36288
 0.77600 0.36324
 0.77700 0.36380
 0.77800 0.36440
 0.77900 0.36496
 0.78000 0.36544
 0.78100 0.36588
 0.78200 0.36628
 0.78300 0.36664
 0.78400 0.36700
 0.78500 0.36752
 0.78600 0.36816
 0.78700 0.36872
 0.78800 0.36920
 0.78900 0.36960
 0.79000 0.37000
 0.79100 0.37036
 0.79200 0.37076
 0.79300 0.37128
 0.79400 0.37192
 0.79500 0.37244
 0.79600 0.37292
 0.79700 0.37332
 0.79800 0.37372
 0.79900 0.37408
 0.80000 0.37448
 0.80100 0.37500
 0.80200 0.37564
 0.80300 0.37620
 0.80400 0.37664
 0.80500 0.37700
 0.80600 0.37744
 0.80700 0.37780
 0.80800 0.37820
 0.80900 0.37872
 0.81000 0.37936
 0.81100 0.37992
 0.81200 0.38036
 0.81300 0.38072
 0.81400 0.38112
 0.81500 0.38152
 0.81600 0.38192
 0.81700 0.38244
 0.81800 0.38308
 0.81900 0.38360
 0.82000 0.38404
 0.82100 0.38440
 0.82200 0.38480
 0.82300 0.38520
 0.82400 0.38560
 0.82500 0.38616
 0.82600 0.38676
 0.82700 0.38728
 0.82800 0.38768
 0.82900 0.38804
 0.83000 0.38848
 0.83100 0.38888
 0.83200 0.38932
 0.83300 0.38988
 0.83400 0.39044
 0.83500 0.39096
 0.83600 0.39136
 0.83700 0.39172
 0.83800 0.39216
 0.83900 0.39256
 0.84000 0.39304
 0.84100 0.39356
 0.84200 0.39412
 0.84300 0.39460
 0.84400 0.39500
 0.84500 0.39536
 0.84600 0.39580
 0.84700 0.39624
 0.84800 0.39672
 0.84900 0.39724
 0.85000 0.39776
 0.85100 0.39824
 0.85200 0.39860
 0.85300 0.39904
 0.85400 0.39948
 0.85500 0.39992
 0.85600 0.40044
 0.85700 0.40092
 0.85800 0.40140
 0.85900 0.40184
 0.86000 0.40224
 0.86100 0.40268
 0.86200 0.40312
 0.86300 0.40360
 0.86400 0.40412
 0.86500 0.40456
 0.86600 0.40500
 0.86700 0.40544
 0.86800 0.40584
 0.86900 0.40632
 0.87000 0.40676
 0.87100 0.40724
 0.87200 0.40776
 0.87300 0.40816
 0.87400 0.40864
 0.87500 0.40904
 0.87600 0.40944
 0.87700 0.40992
 0.87800 0.41040
 0.87900 0.41088
 0.88000 0.41136
 0.88100 0.41180
 0.88200 0.41220
 0.88300 0.41260
 0.88400 0.41304
 0.88500 0.41356
 0.88600 0.41404
 0.88700 0.41448
 0.88800 0.41496
 0.88900 0.41540
 0.89000 0.41580
 0.89100 0.41616
 0.89200 0.41660
 0.89300 0.41716
 0.89400 0.41760
 0.89500 0.41808
 0.89600 0.41856
 0.89700 0.41896
 0.89800 0.41936
 0.89900 0.41972
 0.90000 0.42020
 0.90100 0.42076
 0.90200 0.42120
 0.90300 0.42164
 0.90400 0.42212
 0.90500 0.42252
 0.90600 0.42292
 0.90700 0.42328
 0.90800 0.42376
 0.90900 0.42432
 0.91000 0.42476
 0.91100 0.42520
 0.91200 0.42568
 0.91300 0.42608
 0.91400 0.42644
 0.91500 0.42684
 0.91600 0.42732
 0.91700 0.42784
 0.91800 0.42832
 0.91900 0.42872
 0.92000 0.42920
 0.92100 0.42960
 0.92200 0.42996
 0.92300 0.43040
 0.92400 0.43084
 0.92500 0.43132
 0.92600 0.43184
 0.92700 0.43224
 0.92800 0.43272
 0.92900 0.43312
 0.93000 0.43348
 0.93100 0.43392
 0.93200 0.43432
 0.93300 0.43484
 0.93400 0.43536
 0.93500 0.43576
 0.93600 0.43620
 0.93700 0.43660
 0.93800 0.43700
 0.93900 0.43744
 0.94000 0.43780
 0.94100 0.43832
 0.94200 0.43884
 0.94300 0.43924
 0.94400 0.43968
 0.94500 0.44008
 0.94600 0.44048
 0.94700 0.44092
 0.94800 0.44128
 0.94900 0.44176
 0.95000 0.44228
 0.95100 0.44272
 0.95200 0.44316
 0.95300 0.44356
 0.95400 0.44396
 0.95500 0.44440
 0.95600 0.44476
 0.95700 0.44524
 0.95800 0.44572
 0.95900 0.44620
 0.96000 0.44664
 0.96100 0.44704
 0.96200 0.44744
 0.96300 0.44784
 0.96400 0.44820
 0.96500 0.44868
 0.96600 0.44916
 0.96700 0.44964
 0.96800 0.45008
 0.96900 0.45048
 0.97000 0.45088
 0.97100 0.45128
 0.97200 0.45164
 0.97300 0.45208
 0.97400 0.45260
 0.97500 0.45312
 0.97600 0.45352
 0.97700 0.45388
 0.97800 0.45432
 0.97900 0.45472
 0.98000 0.45508
 0.98100 0.45552
 0.98200 0.45600
 0.98300 0.45656
 0.98400 0.45692
 0.98500 0.45732
 0.98600 0.45772
 0.98700 0.45812
 0.98800 0.45848
 0.98900 0.45892
 0.99000 0.45944
 0.99100 0.45996
 0.99200 0.46032
 0.99300 0.46072
 0.99400 0.46112
 0.99500 0.46152
 0.99600 0.46192
 0.99700 0.46232
 0.99800 0.46284
 0.99900 0.46332
 1.00000 0.46372
 1.00100 0.46408
 1.00200 0.46448
 1.00300 0.46492
 1.00400 0.46532
 1.00500 0.46572
 1.00600 0.46620
 1.00700 0.46668
 1.00800 0.46708
 1.00900 0.46748
 1.01000 0.46784
 1.01100 0.46828
 1.01200 0.46868
 1.01300 0.46908
 1.01400 0.46956
 1.01500 0.47004
 1.01600 0.47044
 1.01700 0.47084
 1.01800 0.47120
 1.01900 0.47168
 1.02000 0.47208
 1.02100 0.47244
 1.02200 0.47288
 1.02300 0.47336
 1.02400 0.47380
 1.02500 0.47416
 1.02600 0.47456
 1.02700 0.47504
 1.02800 0.47540
 1.02900 0.47580
 1.03000 0.47624
 1.03100 0.47668
 1.03200 0.47716
 1.03300 0.47752
 1.03400 0.47792
 1.03500 0.47840
 1.03600 0.47876
 1.03700 0.47916
 1.03800 0.47956
 1.03900 0.48004
 1.04000 0.48048
 1.04100 0.48084
 1.04200 0.48128
 1.04300 0.48172
 1.04400 0.48208
 1.04500 0.48248
 1.04600 0.48288
 1.04700 0.48336
 1.04800 0.48380
 1.04900 0.48416
 1.05000 0.48460
 1.05100 0.48504
 1.05200 0.48540
 1.05300 0.48576
 1.05400 0.48620
 1.05500 0.48668
 1.05600 0.48708
 1.05700 0.48748
 1.05800 0.48792
 1.05900 0.48836
 1.06000 0.48868
 1.06100 0.48908
 1.06200 0.48952
 1.06300 0.49000
 1.06400 0.49040
 1.06500 0.49080
 1.06600 0.49120
 1.06700 0.49164
 1.06800 0.49200
 1.06900 0.49236
 1.07000 0.49284
 1.07100 0.49328
 1.07200 0.49372
 1.07300 0.49408
 1.07400 0.49448
 1.07500 0.49488
 1.07600 0.49528
 1.07700 0.49564
 1.07800 0.49612
 1.07900 0.49660
 1.08000 0.49700
 1.08100 0.49736
 1.08200 0.49772
 1.08300 0.49816
 1.08400 0.49852
 1.08500 0.49892
 1.08600 0.49944
 1.08700 0.49988
 1.08800 0.50028
 1.08900 0.50060
 1.09000 0.50100
 1.09100 0.50140
 1.09200 0.50180
 1.09300 0.50224
 1.09400 0.50272
 1.09500 0.50316
 1.09600 0.50356
 1.09700 0.50388
 1.09800 0.50424
