# Heisenberg S=1/2 chain with anisotropy 
# L=32, J=1.0 , Delta=1.5, Delta_{2}  = 0.00, deltaJ = 0.20  deltah = 0.00
# Dynamical diffusion D(omega)
# Frequency omega/J, Dynamical diffusion D(omega)

 0.00000 0.13520
 0.00100 0.13528
 0.00200 0.13548
 0.00300 0.13576
 0.00400 0.13612
 0.00500 0.13644
 0.00600 0.13680
 0.00700 0.13724
 0.00800 0.13784
 0.00900 0.13852
 0.01000 0.13936
 0.01100 0.14028
 0.01200 0.14120
 0.01300 0.14212
 0.01400 0.14308
 0.01500 0.14408
 0.01600 0.14516
 0.01700 0.14640
 0.01800 0.14776
 0.01900 0.14916
 0.02000 0.15056
 0.02100 0.15196
 0.02200 0.15336
 0.02300 0.15476
 0.02400 0.15632
 0.02500 0.15796
 0.02600 0.15972
 0.02700 0.16152
 0.02800 0.16332
 0.02900 0.16504
 0.03000 0.16676
 0.03100 0.16848
 0.03200 0.17028
 0.03300 0.17224
 0.03400 0.17428
 0.03500 0.17636
 0.03600 0.17844
 0.03700 0.18040
 0.03800 0.18228
 0.03900 0.18420
 0.04000 0.18620
 0.04100 0.18832
 0.04200 0.19056
 0.04300 0.19284
 0.04400 0.19504
 0.04500 0.19716
 0.04600 0.19912
 0.04700 0.20112
 0.04800 0.20320
 0.04900 0.20548
 0.05000 0.20784
 0.05100 0.21020
 0.05200 0.21248
 0.05300 0.21460
 0.05400 0.21660
 0.05500 0.21860
 0.05600 0.22068
 0.05700 0.22296
 0.05800 0.22536
 0.05900 0.22776
 0.06000 0.23004
 0.06100 0.23212
 0.06200 0.23408
 0.06300 0.23600
 0.06400 0.23804
 0.06500 0.24032
 0.06600 0.24272
 0.06700 0.24512
 0.06800 0.24740
 0.06900 0.24940
 0.07000 0.25128
 0.07100 0.25312
 0.07200 0.25516
 0.07300 0.25744
 0.07400 0.25988
 0.07500 0.26232
 0.07600 0.26452
 0.07700 0.26652
 0.07800 0.26832
 0.07900 0.27016
 0.08000 0.27220
 0.08100 0.27448
 0.08200 0.27700
 0.08300 0.27948
 0.08400 0.28172
 0.08500 0.28368
 0.08600 0.28544
 0.08700 0.28728
 0.08800 0.28936
 0.08900 0.29176
 0.09000 0.29432
 0.09100 0.29688
 0.09200 0.29916
 0.09300 0.30116
 0.09400 0.30296
 0.09500 0.30484
 0.09600 0.30700
 0.09700 0.30952
 0.09800 0.31224
 0.09900 0.31492
 0.10000 0.31732
 0.10100 0.31936
 0.10200 0.32124
 0.10300 0.32320
 0.10400 0.32548
 0.10500 0.32816
 0.10600 0.33104
 0.10700 0.33380
 0.10800 0.33628
 0.10900 0.33836
 0.11000 0.34032
 0.11100 0.34236
 0.11200 0.34480
 0.11300 0.34760
 0.11400 0.35064
 0.11500 0.35356
 0.11600 0.35612
 0.11700 0.35832
 0.11800 0.36040
 0.11900 0.36264
 0.12000 0.36528
 0.12100 0.36832
 0.12200 0.37156
 0.12300 0.37468
 0.12400 0.37740
 0.12500 0.37972
 0.12600 0.38192
 0.12700 0.38432
 0.12800 0.38712
 0.12900 0.39036
 0.13000 0.39372
 0.13100 0.39696
 0.13200 0.39976
 0.13300 0.40220
 0.13400 0.40452
 0.13500 0.40704
 0.13600 0.41004
 0.13700 0.41344
 0.13800 0.41696
 0.13900 0.42032
 0.14000 0.42324
 0.14100 0.42576
 0.14200 0.42820
 0.14300 0.43088
 0.14400 0.43400
 0.14500 0.43748
 0.14600 0.44104
 0.14700 0.44440
 0.14800 0.44732
 0.14900 0.44988
 0.15000 0.45240
 0.15100 0.45516
 0.15200 0.45836
 0.15300 0.46192
 0.15400 0.46556
 0.15500 0.46892
 0.15600 0.47184
 0.15700 0.47448
 0.15800 0.47704
 0.15900 0.47984
 0.16000 0.48308
 0.16100 0.48664
 0.16200 0.49020
 0.16300 0.49348
 0.16400 0.49636
 0.16500 0.49896
 0.16600 0.50152
 0.16700 0.50432
 0.16800 0.50752
 0.16900 0.51096
 0.17000 0.51440
 0.17100 0.51756
 0.17200 0.52032
 0.17300 0.52284
 0.17400 0.52536
 0.17500 0.52808
 0.17600 0.53112
 0.17700 0.53436
 0.17800 0.53752
 0.17900 0.54040
 0.18000 0.54296
 0.18100 0.54528
 0.18200 0.54760
 0.18300 0.55012
 0.18400 0.55288
 0.18500 0.55580
 0.18600 0.55860
 0.18700 0.56112
 0.18800 0.56336
 0.18900 0.56544
 0.19000 0.56752
 0.19100 0.56972
 0.19200 0.57204
 0.19300 0.57448
 0.19400 0.57680
 0.19500 0.57888
 0.19600 0.58076
 0.19700 0.58248
 0.19800 0.58420
 0.19900 0.58596
 0.20000 0.58784
 0.20100 0.58972
 0.20200 0.59152
 0.20300 0.59316
 0.20400 0.59460
 0.20500 0.59592
 0.20600 0.59720
 0.20700 0.59844
 0.20800 0.59972
 0.20900 0.60092
 0.21000 0.60208
 0.21100 0.60308
 0.21200 0.60400
 0.21300 0.60480
 0.21400 0.60552
 0.21500 0.60612
 0.21600 0.60668
 0.21700 0.60716
 0.21800 0.60760
 0.21900 0.60800
 0.22000 0.60832
 0.22100 0.60856
 0.22200 0.60868
 0.22300 0.60864
 0.22400 0.60848
 0.22500 0.60828
 0.22600 0.60808
 0.22700 0.60792
 0.22800 0.60776
 0.22900 0.60752
 0.23000 0.60712
 0.23100 0.60656
 0.23200 0.60584
 0.23300 0.60512
 0.23400 0.60444
 0.23500 0.60388
 0.23600 0.60336
 0.23700 0.60276
 0.23800 0.60196
 0.23900 0.60100
 0.24000 0.59988
 0.24100 0.59872
 0.24200 0.59772
 0.24300 0.59688
 0.24400 0.59612
 0.24500 0.59528
 0.24600 0.59424
 0.24700 0.59296
 0.24800 0.59156
 0.24900 0.59016
 0.25000 0.58892
 0.25100 0.58788
 0.25200 0.58692
 0.25300 0.58592
 0.25400 0.58468
 0.25500 0.58324
 0.25600 0.58164
 0.25700 0.58008
 0.25800 0.57868
 0.25900 0.57756
 0.26000 0.57656
 0.26100 0.57552
 0.26200 0.57432
 0.26300 0.57288
 0.26400 0.57128
 0.26500 0.56972
 0.26600 0.56836
 0.26700 0.56728
 0.26800 0.56636
 0.26900 0.56540
 0.27000 0.56424
 0.27100 0.56288
 0.27200 0.56132
 0.27300 0.55980
 0.27400 0.55848
 0.27500 0.55744
 0.27600 0.55656
 0.27700 0.55568
 0.27800 0.55460
 0.27900 0.55324
 0.28000 0.55172
 0.28100 0.55024
 0.28200 0.54896
 0.28300 0.54792
 0.28400 0.54712
 0.28500 0.54636
 0.28600 0.54544
 0.28700 0.54428
 0.28800 0.54292
 0.28900 0.54160
 0.29000 0.54048
 0.29100 0.53960
 0.29200 0.53900
 0.29300 0.53840
 0.29400 0.53768
 0.29500 0.53672
 0.29600 0.53552
 0.29700 0.53428
 0.29800 0.53328
 0.29900 0.53252
 0.30000 0.53208
 0.30100 0.53168
 0.30200 0.53120
 0.30300 0.53040
 0.30400 0.52940
 0.30500 0.52832
 0.30600 0.52736
 0.30700 0.52676
 0.30800 0.52640
 0.30900 0.52620
 0.31000 0.52584
 0.31100 0.52520
 0.31200 0.52432
 0.31300 0.52332
 0.31400 0.52244
 0.31500 0.52192
 0.31600 0.52172
 0.31700 0.52164
 0.31800 0.52148
 0.31900 0.52100
 0.32000 0.52024
 0.32100 0.51936
 0.32200 0.51860
 0.32300 0.51816
 0.32400 0.51812
 0.32500 0.51824
 0.32600 0.51824
 0.32700 0.51792
 0.32800 0.51728
 0.32900 0.51644
 0.33000 0.51576
 0.33100 0.51544
 0.33200 0.51548
 0.33300 0.51576
 0.33400 0.51588
 0.33500 0.51568
 0.33600 0.51508
 0.33700 0.51432
 0.33800 0.51368
 0.33900 0.51340
 0.34000 0.51352
 0.34100 0.51384
 0.34200 0.51408
 0.34300 0.51392
 0.34400 0.51336
 0.34500 0.51260
 0.34600 0.51204
 0.34700 0.51184
 0.34800 0.51208
 0.34900 0.51256
 0.35000 0.51292
 0.35100 0.51288
 0.35200 0.51240
 0.35300 0.51172
 0.35400 0.51124
 0.35500 0.51112
 0.35600 0.51148
 0.35700 0.51204
 0.35800 0.51240
 0.35900 0.51240
 0.36000 0.51192
 0.36100 0.51132
 0.36200 0.51084
 0.36300 0.51084
 0.36400 0.51124
 0.36500 0.51184
 0.36600 0.51228
 0.36700 0.51228
 0.36800 0.51188
 0.36900 0.51132
 0.37000 0.51092
 0.37100 0.51100
 0.37200 0.51148
 0.37300 0.51212
 0.37400 0.51256
 0.37500 0.51256
 0.37600 0.51216
 0.37700 0.51160
 0.37800 0.51124
 0.37900 0.51132
 0.38000 0.51176
 0.38100 0.51232
 0.38200 0.51264
 0.38300 0.51256
 0.38400 0.51216
 0.38500 0.51160
 0.38600 0.51132
 0.38700 0.51140
 0.38800 0.51188
 0.38900 0.51240
 0.39000 0.51272
 0.39100 0.51264
 0.39200 0.51224
 0.39300 0.51176
 0.39400 0.51152
 0.39500 0.51164
 0.39600 0.51208
 0.39700 0.51252
 0.39800 0.51276
 0.39900 0.51260
 0.40000 0.51220
 0.40100 0.51176
 0.40200 0.51156
 0.40300 0.51172
 0.40400 0.51208
 0.40500 0.51248
 0.40600 0.51264
 0.40700 0.51248
 0.40800 0.51212
 0.40900 0.51176
 0.41000 0.51164
 0.41100 0.51180
 0.41200 0.51212
 0.41300 0.51240
 0.41400 0.51248
 0.41500 0.51236
 0.41600 0.51208
 0.41700 0.51184
 0.41800 0.51184
 0.41900 0.51204
 0.42000 0.51232
 0.42100 0.51256
 0.42200 0.51264
 0.42300 0.51256
 0.42400 0.51236
 0.42500 0.51220
 0.42600 0.51220
 0.42700 0.51236
 0.42800 0.51256
 0.42900 0.51264
 0.43000 0.51256
 0.43100 0.51240
 0.43200 0.51216
 0.43300 0.51200
 0.43400 0.51200
 0.43500 0.51204
 0.43600 0.51208
 0.43700 0.51200
 0.43800 0.51184
 0.43900 0.51160
 0.44000 0.51144
 0.44100 0.51132
 0.44200 0.51128
 0.44300 0.51128
 0.44400 0.51120
 0.44500 0.51104
 0.44600 0.51080
 0.44700 0.51060
 0.44800 0.51048
 0.44900 0.51044
 0.45000 0.51048
 0.45100 0.51044
 0.45200 0.51032
 0.45300 0.51008
 0.45400 0.50980
 0.45500 0.50960
 0.45600 0.50948
 0.45700 0.50948
 0.45800 0.50944
 0.45900 0.50932
 0.46000 0.50908
 0.46100 0.50872
 0.46200 0.50840
 0.46300 0.50816
 0.46400 0.50808
 0.46500 0.50808
 0.46600 0.50804
 0.46700 0.50788
 0.46800 0.50752
 0.46900 0.50712
 0.47000 0.50672
 0.47100 0.50652
 0.47200 0.50648
 0.47300 0.50652
 0.47400 0.50656
 0.47500 0.50640
 0.47600 0.50604
 0.47700 0.50564
 0.47800 0.50532
 0.47900 0.50516
 0.48000 0.50524
 0.48100 0.50536
 0.48200 0.50540
 0.48300 0.50528
 0.48400 0.50488
 0.48500 0.50444
 0.48600 0.50412
 0.48700 0.50400
 0.48800 0.50408
 0.48900 0.50424
 0.49000 0.50428
 0.49100 0.50408
 0.49200 0.50368
 0.49300 0.50320
 0.49400 0.50280
 0.49500 0.50264
 0.49600 0.50276
 0.49700 0.50296
 0.49800 0.50300
 0.49900 0.50284
 0.50000 0.50240
 0.50100 0.50184
 0.50200 0.50144
 0.50300 0.50128
 0.50400 0.50136
 0.50500 0.50152
 0.50600 0.50152
 0.50700 0.50128
 0.50800 0.50080
 0.50900 0.50020
 0.51000 0.49976
 0.51100 0.49960
 0.51200 0.49972
 0.51300 0.49992
 0.51400 0.49996
 0.51500 0.49976
 0.51600 0.49928
 0.51700 0.49872
 0.51800 0.49828
 0.51900 0.49820
 0.52000 0.49836
 0.52100 0.49868
 0.52200 0.49884
 0.52300 0.49872
 0.52400 0.49832
 0.52500 0.49780
 0.52600 0.49740
 0.52700 0.49732
 0.52800 0.49752
 0.52900 0.49784
 0.53000 0.49804
 0.53100 0.49792
 0.53200 0.49748
 0.53300 0.49692
 0.53400 0.49652
 0.53500 0.49648
 0.53600 0.49672
 0.53700 0.49708
 0.53800 0.49732
 0.53900 0.49724
 0.54000 0.49684
 0.54100 0.49632
 0.54200 0.49592
 0.54300 0.49588
 0.54400 0.49612
 0.54500 0.49648
 0.54600 0.49672
 0.54700 0.49660
 0.54800 0.49620
 0.54900 0.49568
 0.55000 0.49528
 0.55100 0.49528
 0.55200 0.49560
 0.55300 0.49600
 0.55400 0.49628
 0.55500 0.49620
 0.55600 0.49576
 0.55700 0.49524
 0.55800 0.49492
 0.55900 0.49488
 0.56000 0.49520
 0.56100 0.49564
 0.56200 0.49588
 0.56300 0.49576
 0.56400 0.49536
 0.56500 0.49484
 0.56600 0.49448
 0.56700 0.49448
 0.56800 0.49480
 0.56900 0.49520
 0.57000 0.49544
 0.57100 0.49536
 0.57200 0.49500
 0.57300 0.49456
 0.57400 0.49432
 0.57500 0.49444
 0.57600 0.49480
 0.57700 0.49528
 0.57800 0.49556
 0.57900 0.49556
 0.58000 0.49524
 0.58100 0.49488
 0.58200 0.49464
 0.58300 0.49472
 0.58400 0.49504
 0.58500 0.49540
 0.58600 0.49560
 0.58700 0.49552
 0.58800 0.49516
 0.58900 0.49476
 0.59000 0.49452
 0.59100 0.49456
 0.59200 0.49488
 0.59300 0.49520
 0.59400 0.49540
 0.59500 0.49536
 0.59600 0.49508
 0.59700 0.49476
 0.59800 0.49460
 0.59900 0.49468
 0.60000 0.49500
 0.60100 0.49532
 0.60200 0.49552
 0.60300 0.49548
 0.60400 0.49524
 0.60500 0.49500
 0.60600 0.49484
 0.60700 0.49488
 0.60800 0.49512
 0.60900 0.49536
 0.61000 0.49548
 0.61100 0.49544
 0.61200 0.49520
 0.61300 0.49496
 0.61400 0.49476
 0.61500 0.49476
 0.61600 0.49492
 0.61700 0.49512
 0.61800 0.49524
 0.61900 0.49520
 0.62000 0.49504
 0.62100 0.49484
 0.62200 0.49464
 0.62300 0.49460
 0.62400 0.49468
 0.62500 0.49484
 0.62600 0.49496
 0.62700 0.49492
 0.62800 0.49480
 0.62900 0.49456
 0.63000 0.49436
 0.63100 0.49420
 0.63200 0.49420
 0.63300 0.49428
 0.63400 0.49432
 0.63500 0.49432
 0.63600 0.49420
 0.63700 0.49396
 0.63800 0.49368
 0.63900 0.49348
 0.64000 0.49340
 0.64100 0.49344
 0.64200 0.49352
 0.64300 0.49356
 0.64400 0.49344
 0.64500 0.49320
 0.64600 0.49292
 0.64700 0.49268
 0.64800 0.49260
 0.64900 0.49264
 0.65000 0.49276
 0.65100 0.49280
 0.65200 0.49272
 0.65300 0.49244
 0.65400 0.49204
 0.65500 0.49172
 0.65600 0.49152
 0.65700 0.49152
 0.65800 0.49160
 0.65900 0.49160
 0.66000 0.49144
 0.66100 0.49104
 0.66200 0.49056
 0.66300 0.49016
 0.66400 0.48992
 0.66500 0.48992
 0.66600 0.49000
 0.66700 0.49000
 0.66800 0.48980
 0.66900 0.48940
 0.67000 0.48888
 0.67100 0.48844
 0.67200 0.48820
 0.67300 0.48820
 0.67400 0.48832
 0.67500 0.48832
 0.67600 0.48808
 0.67700 0.48760
 0.67800 0.48700
 0.67900 0.48656
 0.68000 0.48636
 0.68100 0.48636
 0.68200 0.48648
 0.68300 0.48648
 0.68400 0.48620
 0.68500 0.48572
 0.68600 0.48520
 0.68700 0.48480
 0.68800 0.48468
 0.68900 0.48476
 0.69000 0.48496
 0.69100 0.48496
 0.69200 0.48468
 0.69300 0.48416
 0.69400 0.48360
 0.69500 0.48320
 0.69600 0.48308
 0.69700 0.48320
 0.69800 0.48332
 0.69900 0.48328
 0.70000 0.48292
 0.70100 0.48236
 0.70200 0.48176
 0.70300 0.48140
 0.70400 0.48128
 0.70500 0.48144
 0.70600 0.48156
 0.70700 0.48148
 0.70800 0.48112
 0.70900 0.48060
 0.71000 0.48008
 0.71100 0.47976
 0.71200 0.47976
 0.71300 0.47996
 0.71400 0.48012
 0.71500 0.48004
 0.71600 0.47968
 0.71700 0.47912
 0.71800 0.47860
 0.71900 0.47832
 0.72000 0.47832
 0.72100 0.47844
 0.72200 0.47852
 0.72300 0.47836
 0.72400 0.47788
 0.72500 0.47728
 0.72600 0.47672
 0.72700 0.47640
 0.72800 0.47640
 0.72900 0.47652
 0.73000 0.47656
 0.73100 0.47640
 0.73200 0.47592
 0.73300 0.47532
 0.73400 0.47484
 0.73500 0.47460
 0.73600 0.47464
 0.73700 0.47480
 0.73800 0.47484
 0.73900 0.47464
 0.74000 0.47420
 0.74100 0.47360
 0.74200 0.47312
 0.74300 0.47292
 0.74400 0.47292
 0.74500 0.47308
 0.74600 0.47312
 0.74700 0.47292
 0.74800 0.47248
 0.74900 0.47192
 0.75000 0.47148
 0.75100 0.47128
 0.75200 0.47132
 0.75300 0.47148
 0.75400 0.47152
 0.75500 0.47132
 0.75600 0.47088
 0.75700 0.47032
 0.75800 0.46988
 0.75900 0.46968
 0.76000 0.46976
 0.76100 0.46992
 0.76200 0.47000
 0.76300 0.46980
 0.76400 0.46936
 0.76500 0.46884
 0.76600 0.46844
 0.76700 0.46832
 0.76800 0.46840
 0.76900 0.46860
 0.77000 0.46868
 0.77100 0.46848
 0.77200 0.46804
 0.77300 0.46752
 0.77400 0.46712
 0.77500 0.46696
 0.77600 0.46704
 0.77700 0.46724
 0.77800 0.46732
 0.77900 0.46712
 0.78000 0.46672
 0.78100 0.46624
 0.78200 0.46588
 0.78300 0.46576
 0.78400 0.46592
 0.78500 0.46616
 0.78600 0.46628
 0.78700 0.46608
 0.78800 0.46568
 0.78900 0.46516
 0.79000 0.46480
 0.79100 0.46468
 0.79200 0.46476
 0.79300 0.46496
 0.79400 0.46500
 0.79500 0.46476
 0.79600 0.46428
 0.79700 0.46372
 0.79800 0.46332
 0.79900 0.46320
 0.80000 0.46328
 0.80100 0.46344
 0.80200 0.46348
 0.80300 0.46320
 0.80400 0.46272
 0.80500 0.46220
 0.80600 0.46180
 0.80700 0.46172
 0.80800 0.46184
 0.80900 0.46200
 0.81000 0.46200
 0.81100 0.46176
 0.81200 0.46128
 0.81300 0.46080
 0.81400 0.46052
 0.81500 0.46044
 0.81600 0.46060
 0.81700 0.46076
 0.81800 0.46076
 0.81900 0.46048
 0.82000 0.46004
 0.82100 0.45956
 0.82200 0.45928
 0.82300 0.45924
 0.82400 0.45936
 0.82500 0.45944
 0.82600 0.45936
 0.82700 0.45908
 0.82800 0.45864
 0.82900 0.45820
 0.83000 0.45792
 0.83100 0.45788
 0.83200 0.45792
 0.83300 0.45792
 0.83400 0.45780
 0.83500 0.45744
 0.83600 0.45700
 0.83700 0.45660
 0.83800 0.45636
 0.83900 0.45628
 0.84000 0.45632
 0.84100 0.45628
 0.84200 0.45612
 0.84300 0.45584
 0.84400 0.45552
 0.84500 0.45524
 0.84600 0.45508
 0.84700 0.45508
 0.84800 0.45512
 0.84900 0.45508
 0.85000 0.45492
 0.85100 0.45464
 0.85200 0.45436
 0.85300 0.45412
 0.85400 0.45400
 0.85500 0.45392
 0.85600 0.45384
 0.85700 0.45368
 0.85800 0.45344
 0.85900 0.45312
 0.86000 0.45284
 0.86100 0.45260
 0.86200 0.45244
 0.86300 0.45232
 0.86400 0.45216
 0.86500 0.45192
 0.86600 0.45164
 0.86700 0.45140
 0.86800 0.45120
 0.86900 0.45104
 0.87000 0.45088
 0.87100 0.45072
 0.87200 0.45048
 0.87300 0.45020
 0.87400 0.44992
 0.87500 0.44968
 0.87600 0.44948
 0.87700 0.44932
 0.87800 0.44916
 0.87900 0.44888
 0.88000 0.44860
 0.88100 0.44824
 0.88200 0.44796
 0.88300 0.44776
 0.88400 0.44760
 0.88500 0.44748
 0.88600 0.44728
 0.88700 0.44700
 0.88800 0.44664
 0.88900 0.44628
 0.89000 0.44596
 0.89100 0.44580
 0.89200 0.44572
 0.89300 0.44560
 0.89400 0.44544
 0.89500 0.44516
 0.89600 0.44480
 0.89700 0.44444
 0.89800 0.44420
 0.89900 0.44408
 0.90000 0.44404
 0.90100 0.44396
 0.90200 0.44376
 0.90300 0.44344
 0.90400 0.44304
 0.90500 0.44268
 0.90600 0.44244
 0.90700 0.44228
 0.90800 0.44220
 0.90900 0.44208
 0.91000 0.44184
 0.91100 0.44148
 0.91200 0.44108
 0.91300 0.44068
 0.91400 0.44044
 0.91500 0.44032
 0.91600 0.44024
 0.91700 0.44012
 0.91800 0.43992
 0.91900 0.43956
 0.92000 0.43916
 0.92100 0.43876
 0.92200 0.43852
 0.92300 0.43840
 0.92400 0.43832
 0.92500 0.43824
 0.92600 0.43800
 0.92700 0.43768
 0.92800 0.43728
 0.92900 0.43696
 0.93000 0.43668
 0.93100 0.43656
 0.93200 0.43648
 0.93300 0.43636
 0.93400 0.43616
 0.93500 0.43584
 0.93600 0.43544
 0.93700 0.43504
 0.93800 0.43476
 0.93900 0.43460
 0.94000 0.43452
 0.94100 0.43440
 0.94200 0.43424
 0.94300 0.43396
 0.94400 0.43360
 0.94500 0.43324
 0.94600 0.43296
 0.94700 0.43284
 0.94800 0.43276
 0.94900 0.43272
 0.95000 0.43264
 0.95100 0.43240
 0.95200 0.43208
 0.95300 0.43176
 0.95400 0.43148
 0.95500 0.43128
 0.95600 0.43124
 0.95700 0.43116
 0.95800 0.43104
 0.95900 0.43080
 0.96000 0.43048
 0.96100 0.43008
 0.96200 0.42976
 0.96300 0.42960
 0.96400 0.42952
 0.96500 0.42948
 0.96600 0.42940
 0.96700 0.42920
 0.96800 0.42888
 0.96900 0.42848
 0.97000 0.42816
 0.97100 0.42800
 0.97200 0.42792
 0.97300 0.42788
 0.97400 0.42780
 0.97500 0.42756
 0.97600 0.42720
 0.97700 0.42680
 0.97800 0.42648
 0.97900 0.42624
 0.98000 0.42616
 0.98100 0.42608
 0.98200 0.42596
 0.98300 0.42572
 0.98400 0.42536
 0.98500 0.42492
 0.98600 0.42460
 0.98700 0.42436
 0.98800 0.42428
 0.98900 0.42420
 0.99000 0.42412
 0.99100 0.42388
 0.99200 0.42356
 0.99300 0.42320
 0.99400 0.42288
 0.99500 0.42268
 0.99600 0.42256
 0.99700 0.42252
 0.99800 0.42240
 0.99900 0.42220
 1.00000 0.42188
 1.00100 0.42152
 1.00200 0.42124
 1.00300 0.42104
 1.00400 0.42092
 1.00500 0.42084
 1.00600 0.42072
 1.00700 0.42052
 1.00800 0.42024
 1.00900 0.41992
 1.01000 0.41968
 1.01100 0.41956
 1.01200 0.41948
 1.01300 0.41940
 1.01400 0.41936
 1.01500 0.41920
 1.01600 0.41896
 1.01700 0.41872
 1.01800 0.41848
 1.01900 0.41828
 1.02000 0.41816
 1.02100 0.41808
 1.02200 0.41800
 1.02300 0.41784
 1.02400 0.41768
 1.02500 0.41748
 1.02600 0.41728
 1.02700 0.41712
 1.02800 0.41700
 1.02900 0.41692
 1.03000 0.41684
 1.03100 0.41672
 1.03200 0.41656
 1.03300 0.41636
 1.03400 0.41612
 1.03500 0.41592
 1.03600 0.41576
 1.03700 0.41560
 1.03800 0.41548
 1.03900 0.41532
 1.04000 0.41516
 1.04100 0.41492
 1.04200 0.41468
 1.04300 0.41448
 1.04400 0.41428
 1.04500 0.41416
 1.04600 0.41404
 1.04700 0.41396
 1.04800 0.41380
 1.04900 0.41360
 1.05000 0.41340
 1.05100 0.41320
 1.05200 0.41304
 1.05300 0.41296
 1.05400 0.41292
 1.05500 0.41284
 1.05600 0.41272
 1.05700 0.41256
 1.05800 0.41236
 1.05900 0.41216
 1.06000 0.41200
 1.06100 0.41188
 1.06200 0.41176
 1.06300 0.41164
 1.06400 0.41144
 1.06500 0.41120
 1.06600 0.41096
 1.06700 0.41072
 1.06800 0.41056
 1.06900 0.41044
 1.07000 0.41036
 1.07100 0.41020
 1.07200 0.41000
 1.07300 0.40976
 1.07400 0.40960
 1.07500 0.40944
 1.07600 0.40940
 1.07700 0.40936
 1.07800 0.40932
 1.07900 0.40920
 1.08000 0.40900
 1.08100 0.40884
 1.08200 0.40872
 1.08300 0.40864
 1.08400 0.40864
 1.08500 0.40860
 1.08600 0.40848
 1.08700 0.40832
 1.08800 0.40804
 1.08900 0.40784
 1.09000 0.40772
 1.09100 0.40768
 1.09200 0.40772
 1.09300 0.40768
 1.09400 0.40756
 1.09500 0.40732
 1.09600 0.40704
 1.09700 0.40684
 1.09800 0.40676
