# Heisenberg S=1/2 chain with anisotropy 
# L=32, J=1.0 , Delta=1.5, Delta_{2}  = 0.00, deltaJ = 0.00, deltah = 0.40
# Integrated quantity I(omega)
# Frequency omega/J, Integrated quantity I(omega)

 0.000000 0.000000
 0.001000 0.000160
 0.002000 0.000280
 0.003000 0.000400
 0.004000 0.000520
 0.005000 0.000640
 0.006000 0.000720
 0.007000 0.000880
 0.008000 0.001040
 0.009000 0.001240
 0.010000 0.001360
 0.011000 0.001520
 0.012000 0.001600
 0.013000 0.001760
 0.014000 0.001880
 0.015000 0.001960
 0.016000 0.002120
 0.017000 0.002320
 0.018000 0.002520
 0.019000 0.002640
 0.020000 0.002800
 0.021000 0.002920
 0.022000 0.003080
 0.023000 0.003200
 0.024000 0.003320
 0.025000 0.003480
 0.026000 0.003680
 0.027000 0.003880
 0.028000 0.004040
 0.029000 0.004200
 0.030000 0.004360
 0.031000 0.004520
 0.032000 0.004640
 0.033000 0.004800
 0.034000 0.005000
 0.035000 0.005200
 0.036000 0.005400
 0.037000 0.005600
 0.038000 0.005760
 0.039000 0.005920
 0.040000 0.006080
 0.041000 0.006240
 0.042000 0.006440
 0.043000 0.006640
 0.044000 0.006840
 0.045000 0.007080
 0.046000 0.007280
 0.047000 0.007480
 0.048000 0.007640
 0.049000 0.007800
 0.050000 0.008000
 0.051000 0.008200
 0.052000 0.008400
 0.053000 0.008640
 0.054000 0.008920
 0.055000 0.009120
 0.056000 0.009320
 0.057000 0.009520
 0.058000 0.009680
 0.059000 0.009880
 0.060000 0.010120
 0.061000 0.010320
 0.062000 0.010600
 0.063000 0.010880
 0.064000 0.011120
 0.065000 0.011320
 0.066000 0.011520
 0.067000 0.011720
 0.068000 0.011920
 0.069000 0.012160
 0.070000 0.012400
 0.071000 0.012680
 0.072000 0.012960
 0.073000 0.013240
 0.074000 0.013440
 0.075000 0.013680
 0.076000 0.013880
 0.077000 0.014080
 0.078000 0.014320
 0.079000 0.014600
 0.080000 0.014960
 0.081000 0.015240
 0.082000 0.015520
 0.083000 0.015720
 0.084000 0.015960
 0.085000 0.016160
 0.086000 0.016360
 0.087000 0.016640
 0.088000 0.016960
 0.089000 0.017360
 0.090000 0.017640
 0.091000 0.017920
 0.092000 0.018160
 0.093000 0.018360
 0.094000 0.018560
 0.095000 0.018800
 0.096000 0.019080
 0.097000 0.019480
 0.098000 0.019840
 0.099000 0.020160
 0.100000 0.020440
 0.101000 0.020680
 0.102000 0.020880
 0.103000 0.021080
 0.104000 0.021360
 0.105000 0.021680
 0.106000 0.022120
 0.107000 0.022480
 0.108000 0.022800
 0.109000 0.023080
 0.110000 0.023280
 0.111000 0.023520
 0.112000 0.023720
 0.113000 0.024000
 0.114000 0.024400
 0.115000 0.024880
 0.116000 0.025240
 0.117000 0.025560
 0.118000 0.025800
 0.119000 0.026000
 0.120000 0.026240
 0.121000 0.026480
 0.122000 0.026840
 0.123000 0.027280
 0.124000 0.027760
 0.125000 0.028120
 0.126000 0.028400
 0.127000 0.028600
 0.128000 0.028840
 0.129000 0.029080
 0.130000 0.029360
 0.131000 0.029760
 0.132000 0.030240
 0.133000 0.030720
 0.134000 0.031040
 0.135000 0.031320
 0.136000 0.031520
 0.137000 0.031760
 0.138000 0.032040
 0.139000 0.032360
 0.140000 0.032800
 0.141000 0.033320
 0.142000 0.033760
 0.143000 0.034040
 0.144000 0.034280
 0.145000 0.034520
 0.146000 0.034760
 0.147000 0.035040
 0.148000 0.035440
 0.149000 0.035960
 0.150000 0.036480
 0.151000 0.036800
 0.152000 0.037080
 0.153000 0.037320
 0.154000 0.037560
 0.155000 0.037840
 0.156000 0.038200
 0.157000 0.038600
 0.158000 0.039160
 0.159000 0.039640
 0.160000 0.039920
 0.161000 0.040200
 0.162000 0.040440
 0.163000 0.040680
 0.164000 0.041000
 0.165000 0.041360
 0.166000 0.041880
 0.167000 0.042400
 0.168000 0.042800
 0.169000 0.043080
 0.170000 0.043320
 0.171000 0.043560
 0.172000 0.043840
 0.173000 0.044240
 0.174000 0.044640
 0.175000 0.045160
 0.176000 0.045600
 0.177000 0.045960
 0.178000 0.046240
 0.179000 0.046480
 0.180000 0.046720
 0.181000 0.047080
 0.182000 0.047480
 0.183000 0.047920
 0.184000 0.048400
 0.185000 0.048840
 0.186000 0.049160
 0.187000 0.049440
 0.188000 0.049680
 0.189000 0.049960
 0.190000 0.050360
 0.191000 0.050800
 0.192000 0.051200
 0.193000 0.051640
 0.194000 0.052040
 0.195000 0.052360
 0.196000 0.052640
 0.197000 0.052880
 0.198000 0.053240
 0.199000 0.053680
 0.200000 0.054080
 0.201000 0.054480
 0.202000 0.054880
 0.203000 0.055280
 0.204000 0.055560
 0.205000 0.055840
 0.206000 0.056160
 0.207000 0.056560
 0.208000 0.056960
 0.209000 0.057320
 0.210000 0.057720
 0.211000 0.058120
 0.212000 0.058480
 0.213000 0.058800
 0.214000 0.059120
 0.215000 0.059440
 0.216000 0.059840
 0.217000 0.060280
 0.218000 0.060600
 0.219000 0.061000
 0.220000 0.061400
 0.221000 0.061720
 0.222000 0.062040
 0.223000 0.062400
 0.224000 0.062760
 0.225000 0.063200
 0.226000 0.063520
 0.227000 0.063880
 0.228000 0.064240
 0.229000 0.064640
 0.230000 0.065000
 0.231000 0.065360
 0.232000 0.065720
 0.233000 0.066080
 0.234000 0.066480
 0.235000 0.066800
 0.236000 0.067120
 0.237000 0.067520
 0.238000 0.067920
 0.239000 0.068280
 0.240000 0.068680
 0.241000 0.069000
 0.242000 0.069400
 0.243000 0.069760
 0.244000 0.070080
 0.245000 0.070400
 0.246000 0.070800
 0.247000 0.071200
 0.248000 0.071600
 0.249000 0.072000
 0.250000 0.072320
 0.251000 0.072680
 0.252000 0.073040
 0.253000 0.073360
 0.254000 0.073680
 0.255000 0.074080
 0.256000 0.074560
 0.257000 0.074960
 0.258000 0.075320
 0.259000 0.075640
 0.260000 0.076000
 0.261000 0.076360
 0.262000 0.076640
 0.263000 0.077000
 0.264000 0.077440
 0.265000 0.077920
 0.266000 0.078320
 0.267000 0.078640
 0.268000 0.078960
 0.269000 0.079320
 0.270000 0.079640
 0.271000 0.079960
 0.272000 0.080360
 0.273000 0.080840
 0.274000 0.081280
 0.275000 0.081680
 0.276000 0.082000
 0.277000 0.082320
 0.278000 0.082680
 0.279000 0.083000
 0.280000 0.083320
 0.281000 0.083760
 0.282000 0.084240
 0.283000 0.084680
 0.284000 0.085040
 0.285000 0.085360
 0.286000 0.085680
 0.287000 0.086040
 0.288000 0.086400
 0.289000 0.086760
 0.290000 0.087160
 0.291000 0.087680
 0.292000 0.088080
 0.293000 0.088440
 0.294000 0.088760
 0.295000 0.089080
 0.296000 0.089440
 0.297000 0.089800
 0.298000 0.090160
 0.299000 0.090640
 0.300000 0.091120
 0.301000 0.091520
 0.302000 0.091880
 0.303000 0.092160
 0.304000 0.092520
 0.305000 0.092920
 0.306000 0.093280
 0.307000 0.093640
 0.308000 0.094120
 0.309000 0.094600
 0.310000 0.094960
 0.311000 0.095320
 0.312000 0.095600
 0.313000 0.096000
 0.314000 0.096400
 0.315000 0.096760
 0.316000 0.097160
 0.317000 0.097640
 0.318000 0.098080
 0.319000 0.098440
 0.320000 0.098760
 0.321000 0.099080
 0.322000 0.099520
 0.323000 0.099920
 0.324000 0.100280
 0.325000 0.100680
 0.326000 0.101160
 0.327000 0.101600
 0.328000 0.101960
 0.329000 0.102280
 0.330000 0.102640
 0.331000 0.103080
 0.332000 0.103480
 0.333000 0.103840
 0.334000 0.104240
 0.335000 0.104680
 0.336000 0.105160
 0.337000 0.105520
 0.338000 0.105840
 0.339000 0.106240
 0.340000 0.106680
 0.341000 0.107080
 0.342000 0.107440
 0.343000 0.107840
 0.344000 0.108320
 0.345000 0.108760
 0.346000 0.109120
 0.347000 0.109480
 0.348000 0.109920
 0.349000 0.110360
 0.350000 0.110720
 0.351000 0.111040
 0.352000 0.111480
 0.353000 0.111960
 0.354000 0.112400
 0.355000 0.112760
 0.356000 0.113120
 0.357000 0.113600
 0.358000 0.114040
 0.359000 0.114360
 0.360000 0.114720
 0.361000 0.115160
 0.362000 0.115640
 0.363000 0.116120
 0.364000 0.116440
 0.365000 0.116840
 0.366000 0.117320
 0.367000 0.117760
 0.368000 0.118040
 0.369000 0.118400
 0.370000 0.118920
 0.371000 0.119440
 0.372000 0.119840
 0.373000 0.120200
 0.374000 0.120680
 0.375000 0.121120
 0.376000 0.121480
 0.377000 0.121800
 0.378000 0.122200
 0.379000 0.122720
 0.380000 0.123240
 0.381000 0.123640
 0.382000 0.124000
 0.383000 0.124520
 0.384000 0.124960
 0.385000 0.125280
 0.386000 0.125600
 0.387000 0.126040
 0.388000 0.126560
 0.389000 0.127040
 0.390000 0.127480
 0.391000 0.127920
 0.392000 0.128400
 0.393000 0.128800
 0.394000 0.129120
 0.395000 0.129480
 0.396000 0.130000
 0.397000 0.130480
 0.398000 0.130960
 0.399000 0.131400
 0.400000 0.131880
 0.401000 0.132320
 0.402000 0.132680
 0.403000 0.133000
 0.404000 0.133440
 0.405000 0.133920
 0.406000 0.134400
 0.407000 0.134880
 0.408000 0.135360
 0.409000 0.135840
 0.410000 0.136240
 0.411000 0.136640
 0.412000 0.137000
 0.413000 0.137400
 0.414000 0.137880
 0.415000 0.138400
 0.416000 0.138920
 0.417000 0.139400
 0.418000 0.139880
 0.419000 0.140240
 0.420000 0.140640
 0.421000 0.141000
 0.422000 0.141440
 0.423000 0.141920
 0.424000 0.142440
 0.425000 0.143000
 0.426000 0.143480
 0.427000 0.143920
 0.428000 0.144320
 0.429000 0.144720
 0.430000 0.145080
 0.431000 0.145480
 0.432000 0.146000
 0.433000 0.146600
 0.434000 0.147120
 0.435000 0.147600
 0.436000 0.148000
 0.437000 0.148440
 0.438000 0.148840
 0.439000 0.149160
 0.440000 0.149640
 0.441000 0.150200
 0.442000 0.150800
 0.443000 0.151320
 0.444000 0.151760
 0.445000 0.152200
 0.446000 0.152600
 0.447000 0.152960
 0.448000 0.153320
 0.449000 0.153840
 0.450000 0.154440
 0.451000 0.155040
 0.452000 0.155520
 0.453000 0.156040
 0.454000 0.156440
 0.455000 0.156840
 0.456000 0.157160
 0.457000 0.157600
 0.458000 0.158160
 0.459000 0.158720
 0.460000 0.159320
 0.461000 0.159840
 0.462000 0.160320
 0.463000 0.160680
 0.464000 0.161080
 0.465000 0.161440
 0.466000 0.161920
 0.467000 0.162480
 0.468000 0.163080
 0.469000 0.163680
 0.470000 0.164200
 0.471000 0.164600
 0.472000 0.165000
 0.473000 0.165400
 0.474000 0.165760
 0.475000 0.166280
 0.476000 0.166880
 0.477000 0.167480
 0.478000 0.168080
 0.479000 0.168560
 0.480000 0.168960
 0.481000 0.169360
 0.482000 0.169760
 0.483000 0.170160
 0.484000 0.170720
 0.485000 0.171320
 0.486000 0.171960
 0.487000 0.172480
 0.488000 0.172960
 0.489000 0.173400
 0.490000 0.173760
 0.491000 0.174200
 0.492000 0.174640
 0.493000 0.175200
 0.494000 0.175800
 0.495000 0.176440
 0.496000 0.176920
 0.497000 0.177400
 0.498000 0.177840
 0.499000 0.178240
 0.500000 0.178680
 0.501000 0.179160
 0.502000 0.179760
 0.503000 0.180360
 0.504000 0.180920
 0.505000 0.181440
 0.506000 0.181920
 0.507000 0.182360
 0.508000 0.182760
 0.509000 0.183240
 0.510000 0.183720
 0.511000 0.184320
 0.512000 0.184880
 0.513000 0.185440
 0.514000 0.186000
 0.515000 0.186520
 0.516000 0.186920
 0.517000 0.187360
 0.518000 0.187840
 0.519000 0.188320
 0.520000 0.188920
 0.521000 0.189480
 0.522000 0.190040
 0.523000 0.190600
 0.524000 0.191120
 0.525000 0.191520
 0.526000 0.192000
 0.527000 0.192480
 0.528000 0.192960
 0.529000 0.193560
 0.530000 0.194080
 0.531000 0.194680
 0.532000 0.195320
 0.533000 0.195760
 0.534000 0.196200
 0.535000 0.196680
 0.536000 0.197080
 0.537000 0.197600
 0.538000 0.198200
 0.539000 0.198720
 0.540000 0.199400
 0.541000 0.200040
 0.542000 0.200480
 0.543000 0.200920
 0.544000 0.201320
 0.545000 0.201760
 0.546000 0.202320
 0.547000 0.202880
 0.548000 0.203440
 0.549000 0.204200
 0.550000 0.204760
 0.551000 0.205200
 0.552000 0.205600
 0.553000 0.206000
 0.554000 0.206440
 0.555000 0.207040
 0.556000 0.207600
 0.557000 0.208240
 0.558000 0.209000
 0.559000 0.209520
 0.560000 0.209920
 0.561000 0.210280
 0.562000 0.210680
 0.563000 0.211160
 0.564000 0.211760
 0.565000 0.212360
 0.566000 0.213080
 0.567000 0.213840
 0.568000 0.214320
 0.569000 0.214640
 0.570000 0.215000
 0.571000 0.215400
 0.572000 0.215960
 0.573000 0.216560
 0.574000 0.217200
 0.575000 0.218000
 0.576000 0.218680
 0.577000 0.219040
 0.578000 0.219320
 0.579000 0.219720
 0.580000 0.220160
 0.581000 0.220720
 0.582000 0.221360
 0.583000 0.222080
 0.584000 0.222920
 0.585000 0.223440
 0.586000 0.223760
 0.587000 0.224040
 0.588000 0.224480
 0.589000 0.224960
 0.590000 0.225560
 0.591000 0.226240
 0.592000 0.227040
 0.593000 0.227760
 0.594000 0.228200
 0.595000 0.228480
 0.596000 0.228800
 0.597000 0.229280
 0.598000 0.229800
 0.599000 0.230440
 0.600000 0.231200
 0.601000 0.231960
 0.602000 0.232560
 0.603000 0.232960
 0.604000 0.233240
 0.605000 0.233600
 0.606000 0.234120
 0.607000 0.234680
 0.608000 0.235400
 0.609000 0.236080
 0.610000 0.236840
 0.611000 0.237360
 0.612000 0.237680
 0.613000 0.237960
 0.614000 0.238400
 0.615000 0.238960
 0.616000 0.239600
 0.617000 0.240280
 0.618000 0.241000
 0.619000 0.241640
 0.620000 0.242120
 0.621000 0.242440
 0.622000 0.242760
 0.623000 0.243280
 0.624000 0.243880
 0.625000 0.244480
 0.626000 0.245200
 0.627000 0.245880
 0.628000 0.246480
 0.629000 0.246880
 0.630000 0.247200
 0.631000 0.247560
 0.632000 0.248200
 0.633000 0.248760
 0.634000 0.249360
 0.635000 0.250080
 0.636000 0.250720
 0.637000 0.251240
 0.638000 0.251640
 0.639000 0.251960
 0.640000 0.252440
 0.641000 0.253080
 0.642000 0.253600
 0.643000 0.254240
 0.644000 0.254920
 0.645000 0.255520
 0.646000 0.256000
 0.647000 0.256400
 0.648000 0.256800
 0.649000 0.257360
 0.650000 0.257920
 0.651000 0.258440
 0.652000 0.259120
 0.653000 0.259760
 0.654000 0.260320
 0.655000 0.260760
 0.656000 0.261200
 0.657000 0.261680
 0.658000 0.262200
 0.659000 0.262760
 0.660000 0.263320
 0.661000 0.263960
 0.662000 0.264600
 0.663000 0.265120
 0.664000 0.265560
 0.665000 0.266040
 0.666000 0.266520
 0.667000 0.267040
 0.668000 0.267560
 0.669000 0.268160
 0.670000 0.268800
 0.671000 0.269400
 0.672000 0.269920
 0.673000 0.270400
 0.674000 0.270880
 0.675000 0.271360
 0.676000 0.271840
 0.677000 0.272400
 0.678000 0.273000
 0.679000 0.273600
 0.680000 0.274200
 0.681000 0.274760
 0.682000 0.275240
 0.683000 0.275680
 0.684000 0.276160
 0.685000 0.276680
 0.686000 0.277240
 0.687000 0.277800
 0.688000 0.278440
 0.689000 0.279040
 0.690000 0.279560
 0.691000 0.280040
 0.692000 0.280480
 0.693000 0.280960
 0.694000 0.281520
 0.695000 0.282040
 0.696000 0.282640
 0.697000 0.283320
 0.698000 0.283880
 0.699000 0.284360
 0.700000 0.284800
 0.701000 0.285280
 0.702000 0.285760
 0.703000 0.286320
 0.704000 0.286840
 0.705000 0.287480
 0.706000 0.288120
 0.707000 0.288680
 0.708000 0.289120
 0.709000 0.289560
 0.710000 0.290040
 0.711000 0.290560
 0.712000 0.291120
 0.713000 0.291680
 0.714000 0.292360
 0.715000 0.292960
 0.716000 0.293440
 0.717000 0.293880
 0.718000 0.294360
 0.719000 0.294880
 0.720000 0.295360
 0.721000 0.295960
 0.722000 0.296560
 0.723000 0.297200
 0.724000 0.297760
 0.725000 0.298200
 0.726000 0.298640
 0.727000 0.299120
 0.728000 0.299640
 0.729000 0.300200
 0.730000 0.300800
 0.731000 0.301360
 0.732000 0.302000
 0.733000 0.302480
 0.734000 0.302960
 0.735000 0.303400
 0.736000 0.303920
 0.737000 0.304440
 0.738000 0.305040
 0.739000 0.305600
 0.740000 0.306200
 0.741000 0.306760
 0.742000 0.307240
 0.743000 0.307720
 0.744000 0.308200
 0.745000 0.308720
 0.746000 0.309320
 0.747000 0.309840
 0.748000 0.310440
 0.749000 0.311000
 0.750000 0.311520
 0.751000 0.312000
 0.752000 0.312520
 0.753000 0.313000
 0.754000 0.313600
 0.755000 0.314120
 0.756000 0.314680
 0.757000 0.315240
 0.758000 0.315760
 0.759000 0.316280
 0.760000 0.316800
 0.761000 0.317320
 0.762000 0.317840
 0.763000 0.318400
 0.764000 0.318920
 0.765000 0.319480
 0.766000 0.320000
 0.767000 0.320520
 0.768000 0.321040
 0.769000 0.321600
 0.770000 0.322120
 0.771000 0.322640
 0.772000 0.323200
 0.773000 0.323720
 0.774000 0.324280
 0.775000 0.324800
 0.776000 0.325280
 0.777000 0.325840
 0.778000 0.326440
 0.779000 0.326920
 0.780000 0.327440
 0.781000 0.328040
 0.782000 0.328520
 0.783000 0.329080
 0.784000 0.329560
 0.785000 0.330080
 0.786000 0.330720
 0.787000 0.331240
 0.788000 0.331720
 0.789000 0.332280
 0.790000 0.332840
 0.791000 0.333320
 0.792000 0.333840
 0.793000 0.334320
 0.794000 0.334920
 0.795000 0.335560
 0.796000 0.336040
 0.797000 0.336520
 0.798000 0.337080
 0.799000 0.337600
 0.800000 0.338080
 0.801000 0.338600
 0.802000 0.339120
 0.803000 0.339800
 0.804000 0.340320
 0.805000 0.340800
 0.806000 0.341360
 0.807000 0.341880
 0.808000 0.342360
 0.809000 0.342880
 0.810000 0.343440
 0.811000 0.344000
 0.812000 0.344600
 0.813000 0.345120
 0.814000 0.345640
 0.815000 0.346160
 0.816000 0.346680
 0.817000 0.347160
 0.818000 0.347720
 0.819000 0.348280
 0.820000 0.348840
 0.821000 0.349400
 0.822000 0.349920
 0.823000 0.350440
 0.824000 0.350960
 0.825000 0.351440
 0.826000 0.352000
 0.827000 0.352560
 0.828000 0.353120
 0.829000 0.353680
 0.830000 0.354240
 0.831000 0.354720
 0.832000 0.355280
 0.833000 0.355760
 0.834000 0.356280
 0.835000 0.356840
 0.836000 0.357400
 0.837000 0.357960
 0.838000 0.358480
 0.839000 0.359040
 0.840000 0.359560
 0.841000 0.360080
 0.842000 0.360560
 0.843000 0.361160
 0.844000 0.361680
 0.845000 0.362240
 0.846000 0.362760
 0.847000 0.363320
 0.848000 0.363840
 0.849000 0.364360
 0.850000 0.364920
 0.851000 0.365440
 0.852000 0.366000
 0.853000 0.366520
 0.854000 0.367080
 0.855000 0.367600
 0.856000 0.368120
 0.857000 0.368640
 0.858000 0.369240
 0.859000 0.369760
 0.860000 0.370280
 0.861000 0.370840
 0.862000 0.371400
 0.863000 0.371960
 0.864000 0.372400
 0.865000 0.372920
 0.866000 0.373480
 0.867000 0.374080
 0.868000 0.374600
 0.869000 0.375120
 0.870000 0.375680
 0.871000 0.376280
 0.872000 0.376760
 0.873000 0.377200
 0.874000 0.377760
 0.875000 0.378360
 0.876000 0.378960
 0.877000 0.379440
 0.878000 0.379960
 0.879000 0.380560
 0.880000 0.381120
 0.881000 0.381560
 0.882000 0.382000
 0.883000 0.382600
 0.884000 0.383200
 0.885000 0.383760
 0.886000 0.384240
 0.887000 0.384800
 0.888000 0.385440
 0.889000 0.385920
 0.890000 0.386360
 0.891000 0.386840
 0.892000 0.387480
 0.893000 0.388040
 0.894000 0.388560
 0.895000 0.389120
 0.896000 0.389720
 0.897000 0.390280
 0.898000 0.390720
 0.899000 0.391160
 0.900000 0.391680
 0.901000 0.392320
 0.902000 0.392880
 0.903000 0.393400
 0.904000 0.394000
 0.905000 0.394600
 0.906000 0.395120
 0.907000 0.395520
 0.908000 0.395960
 0.909000 0.396520
 0.910000 0.397120
 0.911000 0.397680
 0.912000 0.398280
 0.913000 0.398920
 0.914000 0.399480
 0.915000 0.399920
 0.916000 0.400320
 0.917000 0.400760
 0.918000 0.401320
 0.919000 0.401960
 0.920000 0.402560
 0.921000 0.403200
 0.922000 0.403800
 0.923000 0.404280
 0.924000 0.404680
 0.925000 0.405080
 0.926000 0.405520
 0.927000 0.406160
 0.928000 0.406760
 0.929000 0.407440
 0.930000 0.408120
 0.931000 0.408640
 0.932000 0.409080
 0.933000 0.409440
 0.934000 0.409840
 0.935000 0.410320
 0.936000 0.410960
 0.937000 0.411640
 0.938000 0.412360
 0.939000 0.413000
 0.940000 0.413480
 0.941000 0.413800
 0.942000 0.414160
 0.943000 0.414560
 0.944000 0.415120
 0.945000 0.415800
 0.946000 0.416520
 0.947000 0.417240
 0.948000 0.417840
 0.949000 0.418200
 0.950000 0.418520
 0.951000 0.418880
 0.952000 0.419320
 0.953000 0.419960
 0.954000 0.420680
 0.955000 0.421440
 0.956000 0.422120
 0.957000 0.422600
 0.958000 0.422920
 0.959000 0.423200
 0.960000 0.423560
 0.961000 0.424080
 0.962000 0.424800
 0.963000 0.425600
 0.964000 0.426320
 0.965000 0.426960
 0.966000 0.427320
 0.967000 0.427600
 0.968000 0.427880
 0.969000 0.428320
 0.970000 0.428920
 0.971000 0.429680
 0.972000 0.430520
 0.973000 0.431200
 0.974000 0.431680
 0.975000 0.432040
 0.976000 0.432280
 0.977000 0.432600
 0.978000 0.433080
 0.979000 0.433760
 0.980000 0.434600
 0.981000 0.435320
 0.982000 0.435960
 0.983000 0.436400
 0.984000 0.436680
 0.985000 0.436920
 0.986000 0.437280
 0.987000 0.437880
 0.988000 0.438640
