# Heisenberg S=1/2 chain with anisotropy 
# L=32, J=1.0 , Delta=1.5, Delta_{2}  = 0.00, deltaJ = 0.00, deltah = 0.20
# High-T dynamical diffusion
# Frequency omega/J, Dynamical diffusion D(omega)

 0.000000 0.157400
 0.001000 0.157400
 0.002000 0.157520
 0.003000 0.157680
 0.004000 0.157960
 0.005000 0.158320
 0.006000 0.158760
 0.007000 0.159320
 0.008000 0.159880
 0.009000 0.160520
 0.010000 0.161200
 0.011000 0.162000
 0.012000 0.162880
 0.013000 0.163840
 0.014000 0.164880
 0.015000 0.165960
 0.016000 0.167080
 0.017000 0.168240
 0.018000 0.169440
 0.019000 0.170720
 0.020000 0.172120
 0.021000 0.173560
 0.022000 0.175120
 0.023000 0.176680
 0.024000 0.178280
 0.025000 0.179880
 0.026000 0.181520
 0.027000 0.183200
 0.028000 0.185000
 0.029000 0.186920
 0.030000 0.188880
 0.031000 0.190880
 0.032000 0.192880
 0.033000 0.194840
 0.034000 0.196840
 0.035000 0.198880
 0.036000 0.201080
 0.037000 0.203360
 0.038000 0.205720
 0.039000 0.208080
 0.040000 0.210440
 0.041000 0.212760
 0.042000 0.215040
 0.043000 0.217400
 0.044000 0.219880
 0.045000 0.222480
 0.046000 0.225160
 0.047000 0.227880
 0.048000 0.230520
 0.049000 0.233120
 0.050000 0.235640
 0.051000 0.238240
 0.052000 0.240960
 0.053000 0.243840
 0.054000 0.246800
 0.055000 0.249760
 0.056000 0.252680
 0.057000 0.255480
 0.058000 0.258240
 0.059000 0.261000
 0.060000 0.263840
 0.061000 0.266880
 0.062000 0.270080
 0.063000 0.273240
 0.064000 0.276360
 0.065000 0.279320
 0.066000 0.282160
 0.067000 0.285000
 0.068000 0.288000
 0.069000 0.291160
 0.070000 0.294440
 0.071000 0.297760
 0.072000 0.301000
 0.073000 0.304040
 0.074000 0.306920
 0.075000 0.309800
 0.076000 0.312800
 0.077000 0.315960
 0.078000 0.319320
 0.079000 0.322720
 0.080000 0.325960
 0.081000 0.329040
 0.082000 0.331960
 0.083000 0.334800
 0.084000 0.337760
 0.085000 0.340920
 0.086000 0.344280
 0.087000 0.347680
 0.088000 0.351000
 0.089000 0.354080
 0.090000 0.356960
 0.091000 0.359720
 0.092000 0.362600
 0.093000 0.365720
 0.094000 0.369000
 0.095000 0.372360
 0.096000 0.375640
 0.097000 0.378680
 0.098000 0.381520
 0.099000 0.384200
 0.100000 0.386960
 0.101000 0.389960
 0.102000 0.393120
 0.103000 0.396440
 0.104000 0.399600
 0.105000 0.402560
 0.106000 0.405280
 0.107000 0.407840
 0.108000 0.410480
 0.109000 0.413360
 0.110000 0.416440
 0.111000 0.419680
 0.112000 0.422840
 0.113000 0.425800
 0.114000 0.428480
 0.115000 0.431000
 0.116000 0.433560
 0.117000 0.436320
 0.118000 0.439320
 0.119000 0.442480
 0.120000 0.445600
 0.121000 0.448520
 0.122000 0.451200
 0.123000 0.453680
 0.124000 0.456200
 0.125000 0.458880
 0.126000 0.461800
 0.127000 0.464880
 0.128000 0.468000
 0.129000 0.470960
 0.130000 0.473680
 0.131000 0.476160
 0.132000 0.478640
 0.133000 0.481280
 0.134000 0.484120
 0.135000 0.487160
 0.136000 0.490200
 0.137000 0.493160
 0.138000 0.495840
 0.139000 0.498280
 0.140000 0.500640
 0.141000 0.503120
 0.142000 0.505760
 0.143000 0.508640
 0.144000 0.511560
 0.145000 0.514400
 0.146000 0.516960
 0.147000 0.519320
 0.148000 0.521520
 0.149000 0.523760
 0.150000 0.526160
 0.151000 0.528800
 0.152000 0.531520
 0.153000 0.534200
 0.154000 0.536680
 0.155000 0.538840
 0.156000 0.540840
 0.157000 0.542800
 0.158000 0.544880
 0.159000 0.547160
 0.160000 0.549600
 0.161000 0.552000
 0.162000 0.554240
 0.163000 0.556160
 0.164000 0.557880
 0.165000 0.559480
 0.166000 0.561160
 0.167000 0.563040
 0.168000 0.565040
 0.169000 0.567120
 0.170000 0.569000
 0.171000 0.570640
 0.172000 0.571960
 0.173000 0.573120
 0.174000 0.574320
 0.175000 0.575720
 0.176000 0.577280
 0.177000 0.578920
 0.178000 0.580440
 0.179000 0.581680
 0.180000 0.582560
 0.181000 0.583240
 0.182000 0.583920
 0.183000 0.584720
 0.184000 0.585720
 0.185000 0.586880
 0.186000 0.587960
 0.187000 0.588760
 0.188000 0.589160
 0.189000 0.589280
 0.190000 0.589320
 0.191000 0.589480
 0.192000 0.589880
 0.193000 0.590480
 0.194000 0.591080
 0.195000 0.591400
 0.196000 0.591400
 0.197000 0.591040
 0.198000 0.590560
 0.199000 0.590240
 0.200000 0.590160
 0.201000 0.590360
 0.202000 0.590560
 0.203000 0.590600
 0.204000 0.590240
 0.205000 0.589520
 0.206000 0.588680
 0.207000 0.587960
 0.208000 0.587520
 0.209000 0.587400
 0.210000 0.587400
 0.211000 0.587240
 0.212000 0.586720
 0.213000 0.585840
 0.214000 0.584800
 0.215000 0.583880
 0.216000 0.583240
 0.217000 0.582960
 0.218000 0.582840
 0.219000 0.582640
 0.220000 0.582040
 0.221000 0.581080
 0.222000 0.579920
 0.223000 0.578800
 0.224000 0.578000
 0.225000 0.577560
 0.226000 0.577360
 0.227000 0.577040
 0.228000 0.576400
 0.229000 0.575400
 0.230000 0.574160
 0.231000 0.572960
 0.232000 0.572040
 0.233000 0.571520
 0.234000 0.571240
 0.235000 0.570960
 0.236000 0.570360
 0.237000 0.569360
 0.238000 0.568120
 0.239000 0.566880
 0.240000 0.565920
 0.241000 0.565400
 0.242000 0.565120
 0.243000 0.564840
 0.244000 0.564360
 0.245000 0.563480
 0.246000 0.562320
 0.247000 0.561160
 0.248000 0.560280
 0.249000 0.559760
 0.250000 0.559560
 0.251000 0.559400
 0.252000 0.559000
 0.253000 0.558280
 0.254000 0.557320
 0.255000 0.556280
 0.256000 0.555520
 0.257000 0.555080
 0.258000 0.555000
 0.259000 0.554960
 0.260000 0.554760
 0.261000 0.554240
 0.262000 0.553440
 0.263000 0.552600
 0.264000 0.551960
 0.265000 0.551680
 0.266000 0.551680
 0.267000 0.551800
 0.268000 0.551720
 0.269000 0.551400
 0.270000 0.550800
 0.271000 0.550120
 0.272000 0.549600
 0.273000 0.549400
 0.274000 0.549480
 0.275000 0.549640
 0.276000 0.549720
 0.277000 0.549560
 0.278000 0.549160
 0.279000 0.548640
 0.280000 0.548280
 0.281000 0.548160
 0.282000 0.548280
 0.283000 0.548520
 0.284000 0.548680
 0.285000 0.548640
 0.286000 0.548360
 0.287000 0.548000
 0.288000 0.547720
 0.289000 0.547640
 0.290000 0.547800
 0.291000 0.548040
 0.292000 0.548240
 0.293000 0.548240
 0.294000 0.548040
 0.295000 0.547760
 0.296000 0.547560
 0.297000 0.547480
 0.298000 0.547600
 0.299000 0.547800
 0.300000 0.547960
 0.301000 0.548000
 0.302000 0.547920
 0.303000 0.547760
 0.304000 0.547640
 0.305000 0.547680
 0.306000 0.547880
 0.307000 0.548120
 0.308000 0.548360
 0.309000 0.548520
 0.310000 0.548560
 0.311000 0.548560
 0.312000 0.548640
 0.313000 0.548760
 0.314000 0.549000
 0.315000 0.549280
 0.316000 0.549480
 0.317000 0.549640
 0.318000 0.549760
 0.319000 0.549880
 0.320000 0.550000
 0.321000 0.550200
 0.322000 0.550440
 0.323000 0.550640
 0.324000 0.550800
 0.325000 0.550920
 0.326000 0.551080
 0.327000 0.551280
 0.328000 0.551520
 0.329000 0.551800
 0.330000 0.552040
 0.331000 0.552240
 0.332000 0.552440
 0.333000 0.552560
 0.334000 0.552800
 0.335000 0.553080
 0.336000 0.553400
 0.337000 0.553760
 0.338000 0.554040
 0.339000 0.554240
 0.340000 0.554360
 0.341000 0.554480
 0.342000 0.554680
 0.343000 0.555000
 0.344000 0.555440
 0.345000 0.555880
 0.346000 0.556200
 0.347000 0.556360
 0.348000 0.556440
 0.349000 0.556520
 0.350000 0.556680
 0.351000 0.557040
 0.352000 0.557480
 0.353000 0.557880
 0.354000 0.558160
 0.355000 0.558200
 0.356000 0.558080
 0.357000 0.558000
 0.358000 0.558000
 0.359000 0.558240
 0.360000 0.558640
 0.361000 0.559040
 0.362000 0.559320
 0.363000 0.559320
 0.364000 0.559160
 0.365000 0.559000
 0.366000 0.559000
 0.367000 0.559240
 0.368000 0.559680
 0.369000 0.560160
 0.370000 0.560520
 0.371000 0.560560
 0.372000 0.560360
 0.373000 0.560160
 0.374000 0.560080
 0.375000 0.560280
 0.376000 0.560760
 0.377000 0.561280
 0.378000 0.561640
 0.379000 0.561680
 0.380000 0.561440
 0.381000 0.561120
 0.382000 0.560960
 0.383000 0.561120
 0.384000 0.561560
 0.385000 0.562080
 0.386000 0.562440
 0.387000 0.562480
 0.388000 0.562200
 0.389000 0.561800
 0.390000 0.561520
 0.391000 0.561560
 0.392000 0.561920
 0.393000 0.562440
 0.394000 0.562840
 0.395000 0.562880
 0.396000 0.562560
 0.397000 0.562080
 0.398000 0.561720
 0.399000 0.561680
 0.400000 0.562000
 0.401000 0.562560
 0.402000 0.563000
 0.403000 0.563120
 0.404000 0.562880
 0.405000 0.562400
 0.406000 0.561960
 0.407000 0.561880
 0.408000 0.562200
 0.409000 0.562720
 0.410000 0.563200
 0.411000 0.563360
 0.412000 0.563120
 0.413000 0.562560
 0.414000 0.562040
 0.415000 0.561800
 0.416000 0.561960
 0.417000 0.562440
 0.418000 0.562880
 0.419000 0.563080
 0.420000 0.562800
 0.421000 0.562240
 0.422000 0.561600
 0.423000 0.561280
 0.424000 0.561320
 0.425000 0.561760
 0.426000 0.562280
 0.427000 0.562520
 0.428000 0.562360
 0.429000 0.561880
 0.430000 0.561280
 0.431000 0.560920
 0.432000 0.560960
 0.433000 0.561400
 0.434000 0.561960
 0.435000 0.562320
 0.436000 0.562240
 0.437000 0.561760
 0.438000 0.561120
 0.439000 0.560680
 0.440000 0.560600
 0.441000 0.560960
 0.442000 0.561520
 0.443000 0.561920
 0.444000 0.561880
 0.445000 0.561400
 0.446000 0.560720
 0.447000 0.560160
 0.448000 0.560000
 0.449000 0.560240
 0.450000 0.560760
 0.451000 0.561160
 0.452000 0.561160
 0.453000 0.560760
 0.454000 0.560080
 0.455000 0.559480
 0.456000 0.559240
 0.457000 0.559440
 0.458000 0.559960
 0.459000 0.560440
 0.460000 0.560560
 0.461000 0.560200
 0.462000 0.559520
 0.463000 0.558880
 0.464000 0.558560
 0.465000 0.558680
 0.466000 0.559120
 0.467000 0.559600
 0.468000 0.559760
 0.469000 0.559440
 0.470000 0.558800
 0.471000 0.558120
 0.472000 0.557680
 0.473000 0.557720
 0.474000 0.558160
 0.475000 0.558640
 0.476000 0.558840
 0.477000 0.558600
 0.478000 0.558000
 0.479000 0.557280
 0.480000 0.556800
 0.481000 0.556760
 0.482000 0.557080
 0.483000 0.557560
 0.484000 0.557840
 0.485000 0.557680
 0.486000 0.557120
 0.487000 0.556400
 0.488000 0.555920
 0.489000 0.555880
 0.490000 0.556200
 0.491000 0.556680
 0.492000 0.557000
 0.493000 0.556920
 0.494000 0.556440
 0.495000 0.555760
 0.496000 0.555240
 0.497000 0.555160
 0.498000 0.555440
 0.499000 0.555960
 0.500000 0.556320
 0.501000 0.556320
 0.502000 0.555960
 0.503000 0.555360
 0.504000 0.554880
 0.505000 0.554800
 0.506000 0.555080
 0.507000 0.555560
 0.508000 0.555920
 0.509000 0.555920
 0.510000 0.555560
 0.511000 0.555000
 0.512000 0.554480
 0.513000 0.554320
 0.514000 0.554520
 0.515000 0.554920
 0.516000 0.555280
 0.517000 0.555320
 0.518000 0.555040
 0.519000 0.554560
 0.520000 0.554160
 0.521000 0.554080
 0.522000 0.554320
 0.523000 0.554760
 0.524000 0.555160
 0.525000 0.555280
 0.526000 0.555080
 0.527000 0.554720
 0.528000 0.554360
 0.529000 0.554280
 0.530000 0.554520
 0.531000 0.554920
 0.532000 0.555240
 0.533000 0.555320
 0.534000 0.555160
 0.535000 0.554800
 0.536000 0.554480
 0.537000 0.554360
 0.538000 0.554520
 0.539000 0.554840
 0.540000 0.555040
 0.541000 0.555080
 0.542000 0.554840
 0.543000 0.554480
 0.544000 0.554200
 0.545000 0.554120
 0.546000 0.554240
 0.547000 0.554440
 0.548000 0.554600
 0.549000 0.554560
 0.550000 0.554360
 0.551000 0.554040
 0.552000 0.553800
 0.553000 0.553760
 0.554000 0.553920
 0.555000 0.554120
 0.556000 0.554200
 0.557000 0.554120
 0.558000 0.553880
 0.559000 0.553640
 0.560000 0.553480
 0.561000 0.553520
 0.562000 0.553720
 0.563000 0.553920
 0.564000 0.554000
 0.565000 0.553920
 0.566000 0.553720
 0.567000 0.553560
 0.568000 0.553560
 0.569000 0.553760
 0.570000 0.554040
 0.571000 0.554280
 0.572000 0.554360
 0.573000 0.554280
 0.574000 0.554080
 0.575000 0.553960
 0.576000 0.554040
 0.577000 0.554280
 0.578000 0.554600
 0.579000 0.554840
 0.580000 0.554840
 0.581000 0.554640
 0.582000 0.554320
 0.583000 0.554160
 0.584000 0.554200
 0.585000 0.554400
 0.586000 0.554680
 0.587000 0.554840
 0.588000 0.554720
 0.589000 0.554360
 0.590000 0.553960
 0.591000 0.553680
 0.592000 0.553680
 0.593000 0.553920
 0.594000 0.554240
 0.595000 0.554360
 0.596000 0.554200
 0.597000 0.553760
 0.598000 0.553320
 0.599000 0.553080
 0.600000 0.553120
 0.601000 0.553440
 0.602000 0.553800
 0.603000 0.553960
 0.604000 0.553800
 0.605000 0.553360
 0.606000 0.552840
 0.607000 0.552560
 0.608000 0.552600
 0.609000 0.552960
 0.610000 0.553400
 0.611000 0.553640
 0.612000 0.553480
 0.613000 0.553040
 0.614000 0.552560
 0.615000 0.552280
 0.616000 0.552360
 0.617000 0.552760
 0.618000 0.553240
 0.619000 0.553480
 0.620000 0.553360
 0.621000 0.552880
 0.622000 0.552320
 0.623000 0.551920
 0.624000 0.551960
 0.625000 0.552280
 0.626000 0.552680
 0.627000 0.552920
 0.628000 0.552720
 0.629000 0.552200
 0.630000 0.551520
 0.631000 0.551080
 0.632000 0.550960
 0.633000 0.551240
 0.634000 0.551600
 0.635000 0.551800
 0.636000 0.551600
 0.637000 0.551080
 0.638000 0.550400
 0.639000 0.549880
 0.640000 0.549760
 0.641000 0.549960
 0.642000 0.550360
 0.643000 0.550600
 0.644000 0.550480
 0.645000 0.550040
 0.646000 0.549400
 0.647000 0.548920
 0.648000 0.548760
 0.649000 0.549000
 0.650000 0.549400
 0.651000 0.549720
 0.652000 0.549720
 0.653000 0.549320
 0.654000 0.548760
 0.655000 0.548280
 0.656000 0.548120
 0.657000 0.548280
 0.658000 0.548640
 0.659000 0.548960
 0.660000 0.548960
 0.661000 0.548640
 0.662000 0.548120
 0.663000 0.547600
 0.664000 0.547360
 0.665000 0.547440
 0.666000 0.547760
 0.667000 0.548040
 0.668000 0.548080
 0.669000 0.547800
 0.670000 0.547280
 0.671000 0.546800
 0.672000 0.546480
 0.673000 0.546440
 0.674000 0.546640
 0.675000 0.546840
 0.676000 0.546880
 0.677000 0.546680
 0.678000 0.546200
 0.679000 0.545720
 0.680000 0.545360
 0.681000 0.545200
 0.682000 0.545280
 0.683000 0.545440
 0.684000 0.545480
 0.685000 0.545280
 0.686000 0.544920
 0.687000 0.544440
 0.688000 0.544040
 0.689000 0.543800
 0.690000 0.543800
 0.691000 0.543880
 0.692000 0.543920
 0.693000 0.543800
 0.694000 0.543480
 0.695000 0.543080
 0.696000 0.542720
 0.697000 0.542480
 0.698000 0.542400
 0.699000 0.542440
 0.700000 0.542520
 0.701000 0.542520
 0.702000 0.542360
 0.703000 0.542080
 0.704000 0.541760
 0.705000 0.541480
 0.706000 0.541360
 0.707000 0.541360
 0.708000 0.541440
 0.709000 0.541480
 0.710000 0.541440
 0.711000 0.541200
 0.712000 0.540920
 0.713000 0.540600
 0.714000 0.540360
 0.715000 0.540280
 0.716000 0.540280
 0.717000 0.540360
 0.718000 0.540360
 0.719000 0.540240
 0.720000 0.540000
 0.721000 0.539680
 0.722000 0.539400
 0.723000 0.539240
 0.724000 0.539240
 0.725000 0.539320
 0.726000 0.539400
 0.727000 0.539360
 0.728000 0.539160
 0.729000 0.538880
 0.730000 0.538520
 0.731000 0.538280
 0.732000 0.538200
 0.733000 0.538280
 0.734000 0.538360
 0.735000 0.538400
 0.736000 0.538280
 0.737000 0.537960
 0.738000 0.537560
 0.739000 0.537200
 0.740000 0.537000
 0.741000 0.537000
 0.742000 0.537120
 0.743000 0.537200
 0.744000 0.537120
 0.745000 0.536880
 0.746000 0.536480
 0.747000 0.536040
 0.748000 0.535760
 0.749000 0.535720
 0.750000 0.535800
 0.751000 0.535920
 0.752000 0.535920
 0.753000 0.535720
 0.754000 0.535320
 0.755000 0.534880
 0.756000 0.534520
 0.757000 0.534400
 0.758000 0.534480
 0.759000 0.534640
 0.760000 0.534760
 0.761000 0.534640
 0.762000 0.534320
 0.763000 0.533840
 0.764000 0.533440
 0.765000 0.533280
 0.766000 0.533360
 0.767000 0.533560
 0.768000 0.533800
 0.769000 0.533800
 0.770000 0.533560
 0.771000 0.533120
 0.772000 0.532680
 0.773000 0.532440
 0.774000 0.532440
 0.775000 0.532680
 0.776000 0.532960
 0.777000 0.533080
 0.778000 0.532880
 0.779000 0.532440
 0.780000 0.531880
 0.781000 0.531480
 0.782000 0.531360
 0.783000 0.531480
 0.784000 0.531760
 0.785000 0.531920
 0.786000 0.531800
 0.787000 0.531360
 0.788000 0.530760
 0.789000 0.530240
 0.790000 0.530000
 0.791000 0.530120
 0.792000 0.530440
 0.793000 0.530720
 0.794000 0.530720
 0.795000 0.530360
 0.796000 0.529760
 0.797000 0.529200
 0.798000 0.528880
 0.799000 0.528960
 0.800000 0.529320
 0.801000 0.529720
 0.802000 0.529800
 0.803000 0.529480
 0.804000 0.528840
 0.805000 0.528120
 0.806000 0.527640
 0.807000 0.527560
 0.808000 0.527880
 0.809000 0.528240
 0.810000 0.528400
 0.811000 0.528160
 0.812000 0.527520
 0.813000 0.526760
 0.814000 0.526200
 0.815000 0.526040
 0.816000 0.526360
 0.817000 0.526800
 0.818000 0.527080
 0.819000 0.526920
 0.820000 0.526320
 0.821000 0.525520
 0.822000 0.524840
 0.823000 0.524600
 0.824000 0.524760
 0.825000 0.525200
 0.826000 0.525520
 0.827000 0.525400
 0.828000 0.524840
 0.829000 0.524000
 0.830000 0.523240
 0.831000 0.522880
 0.832000 0.523000
 0.833000 0.523440
 0.834000 0.523840
 0.835000 0.523840
 0.836000 0.523360
 0.837000 0.522520
 0.838000 0.521720
 0.839000 0.521280
 0.840000 0.521360
 0.841000 0.521760
 0.842000 0.522160
 0.843000 0.522240
 0.844000 0.521840
 0.845000 0.521000
 0.846000 0.520160
 0.847000 0.519640
 0.848000 0.519640
 0.849000 0.520000
 0.850000 0.520440
 0.851000 0.520600
 0.852000 0.520240
 0.853000 0.519480
 0.854000 0.518640
 0.855000 0.518040
 0.856000 0.517880
 0.857000 0.518120
 0.858000 0.518480
 0.859000 0.518640
 0.860000 0.518320
 0.861000 0.517600
 0.862000 0.516760
 0.863000 0.516080
 0.864000 0.515840
 0.865000 0.516000
 0.866000 0.516320
 0.867000 0.516480
 0.868000 0.516240
 0.869000 0.515600
 0.870000 0.514760
 0.871000 0.514040
 0.872000 0.513680
 0.873000 0.513680
 0.874000 0.513920
 0.875000 0.514000
 0.876000 0.513800
 0.877000 0.513240
 0.878000 0.512440
 0.879000 0.511720
 0.880000 0.511280
 0.881000 0.511160
 0.882000 0.511240
 0.883000 0.511320
 0.884000 0.511160
 0.885000 0.510680
 0.886000 0.510000
 0.887000 0.509320
 0.888000 0.508840
 0.889000 0.508640
 0.890000 0.508680
 0.891000 0.508760
 0.892000 0.508720
 0.893000 0.508440
 0.894000 0.507920
 0.895000 0.507360
 0.896000 0.506880
 0.897000 0.506560
 0.898000 0.506480
 0.899000 0.506480
 0.900000 0.506400
 0.901000 0.506120
 0.902000 0.505680
 0.903000 0.505080
 0.904000 0.504480
 0.905000 0.504040
 0.906000 0.503720
 0.907000 0.503560
 0.908000 0.503400
 0.909000 0.503200
 0.910000 0.502800
 0.911000 0.502240
 0.912000 0.501600
 0.913000 0.501040
 0.914000 0.500560
 0.915000 0.500280
 0.916000 0.500120
 0.917000 0.500000
 0.918000 0.499800
 0.919000 0.499400
 0.920000 0.498840
 0.921000 0.498240
 0.922000 0.497680
 0.923000 0.497360
 0.924000 0.497200
 0.925000 0.497160
 0.926000 0.497080
 0.927000 0.496800
 0.928000 0.496280
 0.929000 0.495600
 0.930000 0.494920
 0.931000 0.494400
 0.932000 0.494160
 0.933000 0.494080
 0.934000 0.494000
 0.935000 0.493760
 0.936000 0.493200
 0.937000 0.492400
 0.938000 0.491600
 0.939000 0.490920
 0.940000 0.490560
 0.941000 0.490480
 0.942000 0.490520
 0.943000 0.490400
 0.944000 0.489960
 0.945000 0.489240
 0.946000 0.488400
 0.947000 0.487680
 0.948000 0.487320
 0.949000 0.487280
 0.950000 0.487360
 0.951000 0.487320
 0.952000 0.486960
 0.953000 0.486160
 0.954000 0.485200
 0.955000 0.484360
 0.956000 0.483840
 0.957000 0.483680
 0.958000 0.483720
 0.959000 0.483680
 0.960000 0.483280
 0.961000 0.482520
 0.962000 0.481520
 0.963000 0.480560
 0.964000 0.479920
 0.965000 0.479720
 0.966000 0.479800
 0.967000 0.479800
 0.968000 0.479520
 0.969000 0.478840
 0.970000 0.477840
 0.971000 0.476880
 0.972000 0.476240
 0.973000 0.476000
 0.974000 0.476040
 0.975000 0.476080
 0.976000 0.475880
 0.977000 0.475200
 0.978000 0.474240
 0.979000 0.473240
 0.980000 0.472480
 0.981000 0.472160
 0.982000 0.472160
 0.983000 0.472240
 0.984000 0.472080
 0.985000 0.471480
 0.986000 0.470600
 0.987000 0.469560
 0.988000 0.468760
