# Heisenberg S=1/2 chain with anisotropy 
# L=32, J=1.0 , Delta=1.5, Delta_{2}  = 0.00, deltaJ = 0.00, deltah = 0.10
# Integrated quantity I(omega)
# Frequency omega/J, Integrated quantity I(omega)

 0.000000 0.000000
 0.001000 0.000080
 0.002000 0.000120
 0.003000 0.000200
 0.004000 0.000320
 0.005000 0.000400
 0.006000 0.000480
 0.007000 0.000560
 0.008000 0.000600
 0.009000 0.000680
 0.010000 0.000760
 0.011000 0.000840
 0.012000 0.000920
 0.013000 0.001040
 0.014000 0.001120
 0.015000 0.001200
 0.016000 0.001280
 0.017000 0.001360
 0.018000 0.001440
 0.019000 0.001520
 0.020000 0.001640
 0.021000 0.001800
 0.022000 0.001880
 0.023000 0.002000
 0.024000 0.002080
 0.025000 0.002200
 0.026000 0.002280
 0.027000 0.002400
 0.028000 0.002520
 0.029000 0.002680
 0.030000 0.002800
 0.031000 0.002960
 0.032000 0.003080
 0.033000 0.003200
 0.034000 0.003280
 0.035000 0.003400
 0.036000 0.003560
 0.037000 0.003760
 0.038000 0.003920
 0.039000 0.004080
 0.040000 0.004240
 0.041000 0.004360
 0.042000 0.004520
 0.043000 0.004640
 0.044000 0.004840
 0.045000 0.005080
 0.046000 0.005280
 0.047000 0.005440
 0.048000 0.005640
 0.049000 0.005800
 0.050000 0.005960
 0.051000 0.006120
 0.052000 0.006320
 0.053000 0.006600
 0.054000 0.006840
 0.055000 0.007040
 0.056000 0.007280
 0.057000 0.007440
 0.058000 0.007640
 0.059000 0.007840
 0.060000 0.008080
 0.061000 0.008400
 0.062000 0.008680
 0.063000 0.008920
 0.064000 0.009160
 0.065000 0.009400
 0.066000 0.009600
 0.067000 0.009800
 0.068000 0.010080
 0.069000 0.010480
 0.070000 0.010800
 0.071000 0.011080
 0.072000 0.011320
 0.073000 0.011600
 0.074000 0.011840
 0.075000 0.012080
 0.076000 0.012400
 0.077000 0.012840
 0.078000 0.013240
 0.079000 0.013520
 0.080000 0.013840
 0.081000 0.014160
 0.082000 0.014440
 0.083000 0.014720
 0.084000 0.015080
 0.085000 0.015560
 0.086000 0.016000
 0.087000 0.016360
 0.088000 0.016680
 0.089000 0.017040
 0.090000 0.017360
 0.091000 0.017680
 0.092000 0.018120
 0.093000 0.018640
 0.094000 0.019160
 0.095000 0.019560
 0.096000 0.019920
 0.097000 0.020320
 0.098000 0.020640
 0.099000 0.021040
 0.100000 0.021520
 0.101000 0.022120
 0.102000 0.022680
 0.103000 0.023080
 0.104000 0.023480
 0.105000 0.023920
 0.106000 0.024280
 0.107000 0.024720
 0.108000 0.025280
 0.109000 0.025920
 0.110000 0.026480
 0.111000 0.026960
 0.112000 0.027360
 0.113000 0.027800
 0.114000 0.028240
 0.115000 0.028720
 0.116000 0.029320
 0.117000 0.030000
 0.118000 0.030600
 0.119000 0.031080
 0.120000 0.031520
 0.121000 0.031960
 0.122000 0.032400
 0.123000 0.032960
 0.124000 0.033600
 0.125000 0.034280
 0.126000 0.034920
 0.127000 0.035400
 0.128000 0.035840
 0.129000 0.036280
 0.130000 0.036800
 0.131000 0.037360
 0.132000 0.038040
 0.133000 0.038760
 0.134000 0.039360
 0.135000 0.039880
 0.136000 0.040320
 0.137000 0.040760
 0.138000 0.041320
 0.139000 0.041880
 0.140000 0.042600
 0.141000 0.043280
 0.142000 0.043920
 0.143000 0.044440
 0.144000 0.044880
 0.145000 0.045320
 0.146000 0.045880
 0.147000 0.046520
 0.148000 0.047240
 0.149000 0.047920
 0.150000 0.048560
 0.151000 0.049080
 0.152000 0.049520
 0.153000 0.049960
 0.154000 0.050560
 0.155000 0.051200
 0.156000 0.051920
 0.157000 0.052640
 0.158000 0.053280
 0.159000 0.053800
 0.160000 0.054240
 0.161000 0.054720
 0.162000 0.055280
 0.163000 0.056000
 0.164000 0.056720
 0.165000 0.057440
 0.166000 0.058080
 0.167000 0.058600
 0.168000 0.059040
 0.169000 0.059520
 0.170000 0.060160
 0.171000 0.060920
 0.172000 0.061640
 0.173000 0.062360
 0.174000 0.063000
 0.175000 0.063520
 0.176000 0.064000
 0.177000 0.064520
 0.178000 0.065160
 0.179000 0.065960
 0.180000 0.066720
 0.181000 0.067440
 0.182000 0.068080
 0.183000 0.068640
 0.184000 0.069120
 0.185000 0.069640
 0.186000 0.070320
 0.187000 0.071200
 0.188000 0.071960
 0.189000 0.072720
 0.190000 0.073360
 0.191000 0.073920
 0.192000 0.074440
 0.193000 0.075000
 0.194000 0.075720
 0.195000 0.076600
 0.196000 0.077400
 0.197000 0.078160
 0.198000 0.078800
 0.199000 0.079400
 0.200000 0.079960
 0.201000 0.080520
 0.202000 0.081280
 0.203000 0.082200
 0.204000 0.083040
 0.205000 0.083800
 0.206000 0.084440
 0.207000 0.085040
 0.208000 0.085680
 0.209000 0.086240
 0.210000 0.087000
 0.211000 0.088000
 0.212000 0.088840
 0.213000 0.089600
 0.214000 0.090240
 0.215000 0.090880
 0.216000 0.091520
 0.217000 0.092120
 0.218000 0.092920
 0.219000 0.093960
 0.220000 0.094800
 0.221000 0.095560
 0.222000 0.096160
 0.223000 0.096880
 0.224000 0.097520
 0.225000 0.098120
 0.226000 0.098960
 0.227000 0.100000
 0.228000 0.100840
 0.229000 0.101560
 0.230000 0.102200
 0.231000 0.102920
 0.232000 0.103560
 0.233000 0.104200
 0.234000 0.105080
 0.235000 0.106120
 0.236000 0.106920
 0.237000 0.107640
 0.238000 0.108280
 0.239000 0.109040
 0.240000 0.109720
 0.241000 0.110320
 0.242000 0.111240
 0.243000 0.112280
 0.244000 0.113040
 0.245000 0.113760
 0.246000 0.114400
 0.247000 0.115160
 0.248000 0.115840
 0.249000 0.116480
 0.250000 0.117400
 0.251000 0.118400
 0.252000 0.119160
 0.253000 0.119840
 0.254000 0.120560
 0.255000 0.121280
 0.256000 0.121960
 0.257000 0.122600
 0.258000 0.123560
 0.259000 0.124480
 0.260000 0.125240
 0.261000 0.125920
 0.262000 0.126640
 0.263000 0.127360
 0.264000 0.128000
 0.265000 0.128680
 0.266000 0.129640
 0.267000 0.130480
 0.268000 0.131200
 0.269000 0.131920
 0.270000 0.132640
 0.271000 0.133360
 0.272000 0.134000
 0.273000 0.134720
 0.274000 0.135640
 0.275000 0.136400
 0.276000 0.137120
 0.277000 0.137840
 0.278000 0.138560
 0.279000 0.139240
 0.280000 0.139880
 0.281000 0.140600
 0.282000 0.141480
 0.283000 0.142200
 0.284000 0.142920
 0.285000 0.143640
 0.286000 0.144320
 0.287000 0.145000
 0.288000 0.145640
 0.289000 0.146360
 0.290000 0.147200
 0.291000 0.147840
 0.292000 0.148560
 0.293000 0.149280
 0.294000 0.149960
 0.295000 0.150600
 0.296000 0.151240
 0.297000 0.152000
 0.298000 0.152720
 0.299000 0.153360
 0.300000 0.154040
 0.301000 0.154800
 0.302000 0.155440
 0.303000 0.156040
 0.304000 0.156720
 0.305000 0.157400
 0.306000 0.158120
 0.307000 0.158720
 0.308000 0.159360
 0.309000 0.160120
 0.310000 0.160720
 0.311000 0.161320
 0.312000 0.161960
 0.313000 0.162640
 0.314000 0.163280
 0.315000 0.163880
 0.316000 0.164520
 0.317000 0.165240
 0.318000 0.165840
 0.319000 0.166400
 0.320000 0.167040
 0.321000 0.167680
 0.322000 0.168320
 0.323000 0.168840
 0.324000 0.169480
 0.325000 0.170200
 0.326000 0.170800
 0.327000 0.171360
 0.328000 0.171960
 0.329000 0.172560
 0.330000 0.173160
 0.331000 0.173680
 0.332000 0.174320
 0.333000 0.175000
 0.334000 0.175560
 0.335000 0.176160
 0.336000 0.176720
 0.337000 0.177280
 0.338000 0.177840
 0.339000 0.178400
 0.340000 0.179000
 0.341000 0.179640
 0.342000 0.180200
 0.343000 0.180800
 0.344000 0.181320
 0.345000 0.181880
 0.346000 0.182440
 0.347000 0.182960
 0.348000 0.183560
 0.349000 0.184160
 0.350000 0.184760
 0.351000 0.185320
 0.352000 0.185800
 0.353000 0.186360
 0.354000 0.186880
 0.355000 0.187400
 0.356000 0.188000
 0.357000 0.188560
 0.358000 0.189160
 0.359000 0.189720
 0.360000 0.190200
 0.361000 0.190720
 0.362000 0.191240
 0.363000 0.191800
 0.364000 0.192360
 0.365000 0.192880
 0.366000 0.193520
 0.367000 0.194040
 0.368000 0.194520
 0.369000 0.195040
 0.370000 0.195560
 0.371000 0.196120
 0.372000 0.196640
 0.373000 0.197200
 0.374000 0.197840
 0.375000 0.198320
 0.376000 0.198800
 0.377000 0.199320
 0.378000 0.199840
 0.379000 0.200400
 0.380000 0.200920
 0.381000 0.201440
 0.382000 0.202080
 0.383000 0.202600
 0.384000 0.203040
 0.385000 0.203560
 0.386000 0.204080
 0.387000 0.204640
 0.388000 0.205160
 0.389000 0.205680
 0.390000 0.206280
 0.391000 0.206800
 0.392000 0.207240
 0.393000 0.207760
 0.394000 0.208320
 0.395000 0.208880
 0.396000 0.209360
 0.397000 0.209880
 0.398000 0.210520
 0.399000 0.211000
 0.400000 0.211440
 0.401000 0.211960
 0.402000 0.212560
 0.403000 0.213120
 0.404000 0.213600
 0.405000 0.214120
 0.406000 0.214720
 0.407000 0.215240
 0.408000 0.215680
 0.409000 0.216200
 0.410000 0.216800
 0.411000 0.217320
 0.412000 0.217840
 0.413000 0.218360
 0.414000 0.218920
 0.415000 0.219440
 0.416000 0.219920
 0.417000 0.220440
 0.418000 0.221040
 0.419000 0.221560
 0.420000 0.222080
 0.421000 0.222600
 0.422000 0.223160
 0.423000 0.223680
 0.424000 0.224160
 0.425000 0.224680
 0.426000 0.225320
 0.427000 0.225840
 0.428000 0.226360
 0.429000 0.226840
 0.430000 0.227400
 0.431000 0.227920
 0.432000 0.228440
 0.433000 0.228960
 0.434000 0.229600
 0.435000 0.230160
 0.436000 0.230640
 0.437000 0.231160
 0.438000 0.231680
 0.439000 0.232200
 0.440000 0.232760
 0.441000 0.233320
 0.442000 0.233920
 0.443000 0.234480
 0.444000 0.235000
 0.445000 0.235480
 0.446000 0.236000
 0.447000 0.236520
 0.448000 0.237080
 0.449000 0.237680
 0.450000 0.238280
 0.451000 0.238880
 0.452000 0.239360
 0.453000 0.239840
 0.454000 0.240360
 0.455000 0.240920
 0.456000 0.241480
 0.457000 0.242080
 0.458000 0.242720
 0.459000 0.243280
 0.460000 0.243760
 0.461000 0.244240
 0.462000 0.244800
 0.463000 0.245320
 0.464000 0.245960
 0.465000 0.246560
 0.466000 0.247160
 0.467000 0.247720
 0.468000 0.248240
 0.469000 0.248720
 0.470000 0.249240
 0.471000 0.249800
 0.472000 0.250440
 0.473000 0.251040
 0.474000 0.251640
 0.475000 0.252240
 0.476000 0.252720
 0.477000 0.253200
 0.478000 0.253760
 0.479000 0.254360
 0.480000 0.254960
 0.481000 0.255600
 0.482000 0.256200
 0.483000 0.256760
 0.484000 0.257280
 0.485000 0.257760
 0.486000 0.258320
 0.487000 0.258920
 0.488000 0.259560
 0.489000 0.260200
 0.490000 0.260760
 0.491000 0.261360
 0.492000 0.261840
 0.493000 0.262320
 0.494000 0.262880
 0.495000 0.263560
 0.496000 0.264160
 0.497000 0.264800
 0.498000 0.265360
 0.499000 0.265960
 0.500000 0.266440
 0.501000 0.266920
 0.502000 0.267520
 0.503000 0.268200
 0.504000 0.268840
 0.505000 0.269440
 0.506000 0.270000
 0.507000 0.270600
 0.508000 0.271080
 0.509000 0.271600
 0.510000 0.272200
 0.511000 0.272880
 0.512000 0.273520
 0.513000 0.274080
 0.514000 0.274640
 0.515000 0.275240
 0.516000 0.275760
 0.517000 0.276240
 0.518000 0.276880
 0.519000 0.277600
 0.520000 0.278240
 0.521000 0.278760
 0.522000 0.279320
 0.523000 0.279920
 0.524000 0.280440
 0.525000 0.280960
 0.526000 0.281640
 0.527000 0.282360
 0.528000 0.282960
 0.529000 0.283440
 0.530000 0.284000
 0.531000 0.284640
 0.532000 0.285120
 0.533000 0.285680
 0.534000 0.286400
 0.535000 0.287120
 0.536000 0.287680
 0.537000 0.288160
 0.538000 0.288720
 0.539000 0.289320
 0.540000 0.289840
 0.541000 0.290400
 0.542000 0.291120
 0.543000 0.291840
 0.544000 0.292360
 0.545000 0.292840
 0.546000 0.293400
 0.547000 0.294000
 0.548000 0.294520
 0.549000 0.295160
 0.550000 0.295880
 0.551000 0.296600
 0.552000 0.297080
 0.553000 0.297520
 0.554000 0.298080
 0.555000 0.298680
 0.556000 0.299240
 0.557000 0.299880
 0.558000 0.300600
 0.559000 0.301320
 0.560000 0.301800
 0.561000 0.302240
 0.562000 0.302760
 0.563000 0.303360
 0.564000 0.303960
 0.565000 0.304600
 0.566000 0.305360
 0.567000 0.306000
 0.568000 0.306480
 0.569000 0.306920
 0.570000 0.307440
 0.571000 0.308040
 0.572000 0.308640
 0.573000 0.309320
 0.574000 0.310040
 0.575000 0.310680
 0.576000 0.311120
 0.577000 0.311600
 0.578000 0.312080
 0.579000 0.312680
 0.580000 0.313320
 0.581000 0.314000
 0.582000 0.314720
 0.583000 0.315320
 0.584000 0.315760
 0.585000 0.316200
 0.586000 0.316720
 0.587000 0.317280
 0.588000 0.317920
 0.589000 0.318640
 0.590000 0.319360
 0.591000 0.319920
 0.592000 0.320360
 0.593000 0.320840
 0.594000 0.321280
 0.595000 0.321880
 0.596000 0.322520
 0.597000 0.323240
 0.598000 0.323920
 0.599000 0.324480
 0.600000 0.324920
 0.601000 0.325400
 0.602000 0.325840
 0.603000 0.326400
 0.604000 0.327120
 0.605000 0.327800
 0.606000 0.328520
 0.607000 0.329040
 0.608000 0.329480
 0.609000 0.329920
 0.610000 0.330400
 0.611000 0.330960
 0.612000 0.331640
 0.613000 0.332320
 0.614000 0.333040
 0.615000 0.333520
 0.616000 0.334000
 0.617000 0.334440
 0.618000 0.334920
 0.619000 0.335440
 0.620000 0.336120
 0.621000 0.336840
 0.622000 0.337520
 0.623000 0.338000
 0.624000 0.338480
 0.625000 0.338920
 0.626000 0.339400
 0.627000 0.339920
 0.628000 0.340560
 0.629000 0.341280
 0.630000 0.341960
 0.631000 0.342440
 0.632000 0.342920
 0.633000 0.343400
 0.634000 0.343840
 0.635000 0.344320
 0.636000 0.344960
 0.637000 0.345720
 0.638000 0.346360
 0.639000 0.346840
 0.640000 0.347320
 0.641000 0.347800
 0.642000 0.348280
 0.643000 0.348720
 0.644000 0.349320
 0.645000 0.350080
 0.646000 0.350760
 0.647000 0.351200
 0.648000 0.351720
 0.649000 0.352200
 0.650000 0.352680
 0.651000 0.353080
 0.652000 0.353680
 0.653000 0.354480
 0.654000 0.355080
 0.655000 0.355560
 0.656000 0.356080
 0.657000 0.356600
 0.658000 0.357040
 0.659000 0.357400
 0.660000 0.358000
 0.661000 0.358800
 0.662000 0.359440
 0.663000 0.359920
 0.664000 0.360440
 0.665000 0.360960
 0.666000 0.361360
 0.667000 0.361720
 0.668000 0.362320
 0.669000 0.363120
 0.670000 0.363720
 0.671000 0.364200
 0.672000 0.364760
 0.673000 0.365280
 0.674000 0.365640
 0.675000 0.366000
 0.676000 0.366600
 0.677000 0.367400
 0.678000 0.368000
 0.679000 0.368520
 0.680000 0.369080
 0.681000 0.369600
 0.682000 0.369920
 0.683000 0.370280
 0.684000 0.370880
 0.685000 0.371640
 0.686000 0.372280
 0.687000 0.372840
 0.688000 0.373400
 0.689000 0.373880
 0.690000 0.374200
 0.691000 0.374560
 0.692000 0.375160
 0.693000 0.375920
 0.694000 0.376520
 0.695000 0.377120
 0.696000 0.377680
 0.697000 0.378120
 0.698000 0.378440
 0.699000 0.378800
 0.700000 0.379440
 0.701000 0.380160
 0.702000 0.380800
 0.703000 0.381400
 0.704000 0.381920
 0.705000 0.382400
 0.706000 0.382720
 0.707000 0.383080
 0.708000 0.383680
 0.709000 0.384400
 0.710000 0.385040
 0.711000 0.385680
 0.712000 0.386160
 0.713000 0.386600
 0.714000 0.386920
 0.715000 0.387320
 0.716000 0.387960
 0.717000 0.388640
 0.718000 0.389280
 0.719000 0.389920
 0.720000 0.390400
 0.721000 0.390840
 0.722000 0.391160
 0.723000 0.391560
 0.724000 0.392200
 0.725000 0.392880
 0.726000 0.393560
 0.727000 0.394160
 0.728000 0.394640
 0.729000 0.395080
 0.730000 0.395400
 0.731000 0.395800
 0.732000 0.396440
 0.733000 0.397120
 0.734000 0.397840
 0.735000 0.398400
 0.736000 0.398880
 0.737000 0.399320
 0.738000 0.399640
 0.739000 0.400080
 0.740000 0.400680
 0.741000 0.401400
 0.742000 0.402080
 0.743000 0.402600
 0.744000 0.403080
 0.745000 0.403520
 0.746000 0.403880
 0.747000 0.404320
 0.748000 0.404960
 0.749000 0.405680
 0.750000 0.406280
 0.751000 0.406800
 0.752000 0.407280
 0.753000 0.407720
 0.754000 0.408080
 0.755000 0.408560
 0.756000 0.409200
 0.757000 0.409920
 0.758000 0.410520
 0.759000 0.410960
 0.760000 0.411480
 0.761000 0.411920
 0.762000 0.412280
 0.763000 0.412800
 0.764000 0.413440
 0.765000 0.414160
 0.766000 0.414680
 0.767000 0.415160
 0.768000 0.415680
 0.769000 0.416120
 0.770000 0.416480
 0.771000 0.417040
 0.772000 0.417680
 0.773000 0.418360
 0.774000 0.418880
 0.775000 0.419320
 0.776000 0.419840
 0.777000 0.420280
 0.778000 0.420680
 0.779000 0.421240
 0.780000 0.421920
 0.781000 0.422560
 0.782000 0.423040
 0.783000 0.423480
 0.784000 0.423960
 0.785000 0.424440
 0.786000 0.424880
 0.787000 0.425480
 0.788000 0.426160
 0.789000 0.426720
 0.790000 0.427200
 0.791000 0.427600
 0.792000 0.428120
 0.793000 0.428600
 0.794000 0.429080
 0.795000 0.429720
 0.796000 0.430320
 0.797000 0.430880
 0.798000 0.431320
 0.799000 0.431760
 0.800000 0.432240
 0.801000 0.432720
 0.802000 0.433280
 0.803000 0.433920
 0.804000 0.434480
 0.805000 0.435000
 0.806000 0.435440
 0.807000 0.435880
 0.808000 0.436360
 0.809000 0.436880
 0.810000 0.437480
 0.811000 0.438120
 0.812000 0.438640
 0.813000 0.439120
 0.814000 0.439560
 0.815000 0.440000
 0.816000 0.440480
 0.817000 0.441000
 0.818000 0.441680
 0.819000 0.442280
 0.820000 0.442760
 0.821000 0.443240
 0.822000 0.443640
 0.823000 0.444080
 0.824000 0.444560
 0.825000 0.445120
 0.826000 0.445840
 0.827000 0.446400
 0.828000 0.446880
 0.829000 0.447320
 0.830000 0.447760
 0.831000 0.448200
 0.832000 0.448680
 0.833000 0.449240
 0.834000 0.449960
 0.835000 0.450520
 0.836000 0.450960
 0.837000 0.451400
 0.838000 0.451800
 0.839000 0.452240
 0.840000 0.452760
 0.841000 0.453360
 0.842000 0.454040
 0.843000 0.454600
 0.844000 0.455040
 0.845000 0.455440
 0.846000 0.455840
 0.847000 0.456320
 0.848000 0.456840
 0.849000 0.457480
 0.850000 0.458120
 0.851000 0.458680
 0.852000 0.459080
 0.853000 0.459480
 0.854000 0.459880
 0.855000 0.460360
 0.856000 0.460920
 0.857000 0.461520
 0.858000 0.462160
 0.859000 0.462680
 0.860000 0.463120
 0.861000 0.463480
 0.862000 0.463920
 0.863000 0.464400
 0.864000 0.465000
 0.865000 0.465560
 0.866000 0.466160
 0.867000 0.466680
 0.868000 0.467080
 0.869000 0.467440
 0.870000 0.467880
 0.871000 0.468400
 0.872000 0.469000
 0.873000 0.469560
 0.874000 0.470120
 0.875000 0.470680
 0.876000 0.471040
 0.877000 0.471400
 0.878000 0.471880
 0.879000 0.472400
 0.880000 0.473000
 0.881000 0.473520
 0.882000 0.474080
 0.883000 0.474600
 0.884000 0.474960
 0.885000 0.475320
 0.886000 0.475800
 0.887000 0.476360
 0.888000 0.476920
 0.889000 0.477480
 0.890000 0.477960
 0.891000 0.478480
 0.892000 0.478880
 0.893000 0.479240
 0.894000 0.479720
 0.895000 0.480280
 0.896000 0.480840
 0.897000 0.481360
 0.898000 0.481840
 0.899000 0.482360
 0.900000 0.482720
 0.901000 0.483120
 0.902000 0.483640
 0.903000 0.484160
 0.904000 0.484720
 0.905000 0.485240
 0.906000 0.485720
 0.907000 0.486200
 0.908000 0.486560
 0.909000 0.486960
 0.910000 0.487520
 0.911000 0.488000
 0.912000 0.488560
 0.913000 0.489080
 0.914000 0.489560
 0.915000 0.490000
 0.916000 0.490400
 0.917000 0.490800
 0.918000 0.491320
 0.919000 0.491840
 0.920000 0.492360
 0.921000 0.492880
 0.922000 0.493360
 0.923000 0.493760
 0.924000 0.494200
 0.925000 0.494600
 0.926000 0.495120
 0.927000 0.495600
 0.928000 0.496160
 0.929000 0.496680
 0.930000 0.497120
 0.931000 0.497520
 0.932000 0.497960
 0.933000 0.498400
 0.934000 0.498880
 0.935000 0.499360
 0.936000 0.499920
 0.937000 0.500400
 0.938000 0.500840
 0.939000 0.501280
 0.940000 0.501680
 0.941000 0.502120
 0.942000 0.502600
 0.943000 0.503080
 0.944000 0.503640
 0.945000 0.504120
 0.946000 0.504560
 0.947000 0.504960
 0.948000 0.505360
 0.949000 0.505800
 0.950000 0.506280
 0.951000 0.506760
 0.952000 0.507320
 0.953000 0.507800
 0.954000 0.508240
 0.955000 0.508680
 0.956000 0.509040
 0.957000 0.509480
 0.958000 0.509920
 0.959000 0.510440
 0.960000 0.511000
 0.961000 0.511480
 0.962000 0.511920
 0.963000 0.512320
 0.964000 0.512680
 0.965000 0.513080
 0.966000 0.513560
 0.967000 0.514080
 0.968000 0.514600
 0.969000 0.515080
 0.970000 0.515520
 0.971000 0.515920
 0.972000 0.516280
 0.973000 0.516680
 0.974000 0.517120
 0.975000 0.517680
 0.976000 0.518200
 0.977000 0.518680
 0.978000 0.519120
 0.979000 0.519520
 0.980000 0.519840
 0.981000 0.520200
 0.982000 0.520680
 0.983000 0.521240
 0.984000 0.521760
 0.985000 0.522280
 0.986000 0.522680
 0.987000 0.523040
 0.988000 0.523400
