# Heisenberg S=1/2 chain with anisotropy 
# L=32, J=1.0 , Delta=1.5, Delta_{2}  = 0.00, deltaJ = 0.00, deltah = 0.30
# High-T dynamical diffusion
# Frequency omega/J, Dynamical diffusion D(omega)

 0.000000 0.165880
 0.001000 0.165960
 0.002000 0.166160
 0.003000 0.166440
 0.004000 0.166760
 0.005000 0.167080
 0.006000 0.167360
 0.007000 0.167680
 0.008000 0.168120
 0.009000 0.168720
 0.010000 0.169440
 0.011000 0.170280
 0.012000 0.171160
 0.013000 0.172040
 0.014000 0.172880
 0.015000 0.173760
 0.016000 0.174680
 0.017000 0.175680
 0.018000 0.176840
 0.019000 0.178080
 0.020000 0.179440
 0.021000 0.180800
 0.022000 0.182160
 0.023000 0.183440
 0.024000 0.184720
 0.025000 0.186040
 0.026000 0.187520
 0.027000 0.189120
 0.028000 0.190800
 0.029000 0.192560
 0.030000 0.194280
 0.031000 0.195920
 0.032000 0.197520
 0.033000 0.199120
 0.034000 0.200800
 0.035000 0.202600
 0.036000 0.204560
 0.037000 0.206560
 0.038000 0.208560
 0.039000 0.210520
 0.040000 0.212360
 0.041000 0.214120
 0.042000 0.215960
 0.043000 0.217920
 0.044000 0.220000
 0.045000 0.222160
 0.046000 0.224360
 0.047000 0.226520
 0.048000 0.228560
 0.049000 0.230480
 0.050000 0.232400
 0.051000 0.234360
 0.052000 0.236480
 0.053000 0.238760
 0.054000 0.241080
 0.055000 0.243400
 0.056000 0.245600
 0.057000 0.247680
 0.058000 0.249680
 0.059000 0.251680
 0.060000 0.253800
 0.061000 0.256120
 0.062000 0.258520
 0.063000 0.260960
 0.064000 0.263280
 0.065000 0.265440
 0.066000 0.267480
 0.067000 0.269440
 0.068000 0.271520
 0.069000 0.273720
 0.070000 0.276080
 0.071000 0.278560
 0.072000 0.280960
 0.073000 0.283240
 0.074000 0.285280
 0.075000 0.287200
 0.076000 0.289200
 0.077000 0.291320
 0.078000 0.293600
 0.079000 0.296080
 0.080000 0.298560
 0.081000 0.300920
 0.082000 0.303040
 0.083000 0.304960
 0.084000 0.306840
 0.085000 0.308840
 0.086000 0.311000
 0.087000 0.313400
 0.088000 0.315880
 0.089000 0.318240
 0.090000 0.320440
 0.091000 0.322360
 0.092000 0.324160
 0.093000 0.325960
 0.094000 0.327960
 0.095000 0.330200
 0.096000 0.332600
 0.097000 0.335000
 0.098000 0.337200
 0.099000 0.339160
 0.100000 0.340880
 0.101000 0.342520
 0.102000 0.344280
 0.103000 0.346320
 0.104000 0.348600
 0.105000 0.351000
 0.106000 0.353280
 0.107000 0.355280
 0.108000 0.356960
 0.109000 0.358520
 0.110000 0.360120
 0.111000 0.361960
 0.112000 0.364080
 0.113000 0.366400
 0.114000 0.368760
 0.115000 0.370840
 0.116000 0.372640
 0.117000 0.374160
 0.118000 0.375600
 0.119000 0.377200
 0.120000 0.379080
 0.121000 0.381280
 0.122000 0.383560
 0.123000 0.385680
 0.124000 0.387440
 0.125000 0.388880
 0.126000 0.390160
 0.127000 0.391480
 0.128000 0.393080
 0.129000 0.395000
 0.130000 0.397160
 0.131000 0.399280
 0.132000 0.401080
 0.133000 0.402520
 0.134000 0.403640
 0.135000 0.404720
 0.136000 0.406040
 0.137000 0.407680
 0.138000 0.409640
 0.139000 0.411680
 0.140000 0.413560
 0.141000 0.415040
 0.142000 0.416120
 0.143000 0.417040
 0.144000 0.418000
 0.145000 0.419320
 0.146000 0.421000
 0.147000 0.422920
 0.148000 0.424760
 0.149000 0.426280
 0.150000 0.427320
 0.151000 0.428040
 0.152000 0.428680
 0.153000 0.429640
 0.154000 0.430960
 0.155000 0.432600
 0.156000 0.434360
 0.157000 0.435840
 0.158000 0.436880
 0.159000 0.437480
 0.160000 0.437880
 0.161000 0.438400
 0.162000 0.439320
 0.163000 0.440640
 0.164000 0.442160
 0.165000 0.443600
 0.166000 0.444600
 0.167000 0.445120
 0.168000 0.445280
 0.169000 0.445440
 0.170000 0.445880
 0.171000 0.446760
 0.172000 0.448040
 0.173000 0.449320
 0.174000 0.450360
 0.175000 0.450880
 0.176000 0.450960
 0.177000 0.450880
 0.178000 0.450960
 0.179000 0.451480
 0.180000 0.452480
 0.181000 0.453680
 0.182000 0.454720
 0.183000 0.455360
 0.184000 0.455440
 0.185000 0.455200
 0.186000 0.454960
 0.187000 0.455080
 0.188000 0.455680
 0.189000 0.456680
 0.190000 0.457720
 0.191000 0.458400
 0.192000 0.458600
 0.193000 0.458320
 0.194000 0.457880
 0.195000 0.457680
 0.196000 0.457960
 0.197000 0.458720
 0.198000 0.459680
 0.199000 0.460440
 0.200000 0.460720
 0.201000 0.460480
 0.202000 0.459920
 0.203000 0.459400
 0.204000 0.459320
 0.205000 0.459720
 0.206000 0.460520
 0.207000 0.461360
 0.208000 0.461760
 0.209000 0.461680
 0.210000 0.461120
 0.211000 0.460480
 0.212000 0.460120
 0.213000 0.460320
 0.214000 0.461000
 0.215000 0.461880
 0.216000 0.462520
 0.217000 0.462680
 0.218000 0.462320
 0.219000 0.461640
 0.220000 0.461120
 0.221000 0.461080
 0.222000 0.461560
 0.223000 0.462400
 0.224000 0.463200
 0.225000 0.463600
 0.226000 0.463400
 0.227000 0.462800
 0.228000 0.462160
 0.229000 0.461880
 0.230000 0.462120
 0.231000 0.462880
 0.232000 0.463720
 0.233000 0.464320
 0.234000 0.464360
 0.235000 0.463920
 0.236000 0.463200
 0.237000 0.462720
 0.238000 0.462720
 0.239000 0.463280
 0.240000 0.464160
 0.241000 0.464920
 0.242000 0.465240
 0.243000 0.465000
 0.244000 0.464360
 0.245000 0.463800
 0.246000 0.463600
 0.247000 0.464000
 0.248000 0.464840
 0.249000 0.465760
 0.250000 0.466320
 0.251000 0.466360
 0.252000 0.465920
 0.253000 0.465360
 0.254000 0.465000
 0.255000 0.465200
 0.256000 0.465920
 0.257000 0.466880
 0.258000 0.467680
 0.259000 0.468000
 0.260000 0.467760
 0.261000 0.467200
 0.262000 0.466760
 0.263000 0.466760
 0.264000 0.467360
 0.265000 0.468320
 0.266000 0.469280
 0.267000 0.469840
 0.268000 0.469880
 0.269000 0.469440
 0.270000 0.468960
 0.271000 0.468800
 0.272000 0.469160
 0.273000 0.470000
 0.274000 0.471000
 0.275000 0.471760
 0.276000 0.472000
 0.277000 0.471760
 0.278000 0.471240
 0.279000 0.470920
 0.280000 0.471080
 0.281000 0.471800
 0.282000 0.472800
 0.283000 0.473760
 0.284000 0.474280
 0.285000 0.474240
 0.286000 0.473880
 0.287000 0.473520
 0.288000 0.473560
 0.289000 0.474080
 0.290000 0.475040
 0.291000 0.476040
 0.292000 0.476720
 0.293000 0.476920
 0.294000 0.476640
 0.295000 0.476240
 0.296000 0.476080
 0.297000 0.476400
 0.298000 0.477200
 0.299000 0.478240
 0.300000 0.479160
 0.301000 0.479560
 0.302000 0.479520
 0.303000 0.479200
 0.304000 0.478960
 0.305000 0.479160
 0.306000 0.479840
 0.307000 0.480880
 0.308000 0.481880
 0.309000 0.482560
 0.310000 0.482720
 0.311000 0.482520
 0.312000 0.482240
 0.313000 0.482320
 0.314000 0.482800
 0.315000 0.483760
 0.316000 0.484800
 0.317000 0.485600
 0.318000 0.485960
 0.319000 0.485920
 0.320000 0.485640
 0.321000 0.485560
 0.322000 0.485920
 0.323000 0.486680
 0.324000 0.487680
 0.325000 0.488600
 0.326000 0.489160
 0.327000 0.489240
 0.328000 0.489040
 0.329000 0.488840
 0.330000 0.489000
 0.331000 0.489600
 0.332000 0.490520
 0.333000 0.491480
 0.334000 0.492200
 0.335000 0.492520
 0.336000 0.492480
 0.337000 0.492320
 0.338000 0.492400
 0.339000 0.492840
 0.340000 0.493680
 0.341000 0.494680
 0.342000 0.495520
 0.343000 0.496000
 0.344000 0.496080
 0.345000 0.495920
 0.346000 0.495840
 0.347000 0.496080
 0.348000 0.496680
 0.349000 0.497560
 0.350000 0.498440
 0.351000 0.499040
 0.352000 0.499240
 0.353000 0.499160
 0.354000 0.499040
 0.355000 0.499160
 0.356000 0.499600
 0.357000 0.500400
 0.358000 0.501280
 0.359000 0.502000
 0.360000 0.502400
 0.361000 0.502480
 0.362000 0.502400
 0.363000 0.502440
 0.364000 0.502760
 0.365000 0.503400
 0.366000 0.504240
 0.367000 0.505040
 0.368000 0.505600
 0.369000 0.505840
 0.370000 0.505880
 0.371000 0.505880
 0.372000 0.506040
 0.373000 0.506560
 0.374000 0.507320
 0.375000 0.508120
 0.376000 0.508800
 0.377000 0.509240
 0.378000 0.509360
 0.379000 0.509360
 0.380000 0.509440
 0.381000 0.509800
 0.382000 0.510400
 0.383000 0.511200
 0.384000 0.511960
 0.385000 0.512520
 0.386000 0.512840
 0.387000 0.512960
 0.388000 0.513040
 0.389000 0.513240
 0.390000 0.513720
 0.391000 0.514400
 0.392000 0.515200
 0.393000 0.515840
 0.394000 0.516280
 0.395000 0.516480
 0.396000 0.516480
 0.397000 0.516560
 0.398000 0.516840
 0.399000 0.517320
 0.400000 0.518000
 0.401000 0.518720
 0.402000 0.519280
 0.403000 0.519600
 0.404000 0.519720
 0.405000 0.519800
 0.406000 0.519920
 0.407000 0.520320
 0.408000 0.520920
 0.409000 0.521640
 0.410000 0.522360
 0.411000 0.522840
 0.412000 0.523120
 0.413000 0.523200
 0.414000 0.523280
 0.415000 0.523480
 0.416000 0.523920
 0.417000 0.524520
 0.418000 0.525240
 0.419000 0.525840
 0.420000 0.526200
 0.421000 0.526360
 0.422000 0.526400
 0.423000 0.526480
 0.424000 0.526720
 0.425000 0.527200
 0.426000 0.527880
 0.427000 0.528560
 0.428000 0.529080
 0.429000 0.529360
 0.430000 0.529440
 0.431000 0.529440
 0.432000 0.529520
 0.433000 0.529880
 0.434000 0.530440
 0.435000 0.531200
 0.436000 0.531840
 0.437000 0.532280
 0.438000 0.532440
 0.439000 0.532400
 0.440000 0.532360
 0.441000 0.532520
 0.442000 0.532960
 0.443000 0.533640
 0.444000 0.534360
 0.445000 0.534920
 0.446000 0.535200
 0.447000 0.535200
 0.448000 0.535120
 0.449000 0.535080
 0.450000 0.535320
 0.451000 0.535840
 0.452000 0.536520
 0.453000 0.537160
 0.454000 0.537560
 0.455000 0.537640
 0.456000 0.537480
 0.457000 0.537320
 0.458000 0.537320
 0.459000 0.537680
 0.460000 0.538280
 0.461000 0.538920
 0.462000 0.539440
 0.463000 0.539680
 0.464000 0.539560
 0.465000 0.539320
 0.466000 0.539200
 0.467000 0.539360
 0.468000 0.539840
 0.469000 0.540480
 0.470000 0.541120
 0.471000 0.541480
 0.472000 0.541520
 0.473000 0.541280
 0.474000 0.541080
 0.475000 0.541080
 0.476000 0.541400
 0.477000 0.542000
 0.478000 0.542680
 0.479000 0.543200
 0.480000 0.543400
 0.481000 0.543240
 0.482000 0.543000
 0.483000 0.542840
 0.484000 0.543000
 0.485000 0.543440
 0.486000 0.544120
 0.487000 0.544720
 0.488000 0.545080
 0.489000 0.545120
 0.490000 0.544920
 0.491000 0.544680
 0.492000 0.544640
 0.493000 0.544880
 0.494000 0.545400
 0.495000 0.546000
 0.496000 0.546400
 0.497000 0.546480
 0.498000 0.546280
 0.499000 0.545960
 0.500000 0.545680
 0.501000 0.545720
 0.502000 0.546000
 0.503000 0.546480
 0.504000 0.546920
 0.505000 0.547160
 0.506000 0.547080
 0.507000 0.546840
 0.508000 0.546560
 0.509000 0.546440
 0.510000 0.546600
 0.511000 0.547000
 0.512000 0.547440
 0.513000 0.547800
 0.514000 0.547880
 0.515000 0.547720
 0.516000 0.547440
 0.517000 0.547160
 0.518000 0.547120
 0.519000 0.547280
 0.520000 0.547600
 0.521000 0.547960
 0.522000 0.548160
 0.523000 0.548120
 0.524000 0.547920
 0.525000 0.547680
 0.526000 0.547520
 0.527000 0.547560
 0.528000 0.547800
 0.529000 0.548160
 0.530000 0.548440
 0.531000 0.548560
 0.532000 0.548480
 0.533000 0.548240
 0.534000 0.548000
 0.535000 0.547880
 0.536000 0.547920
 0.537000 0.548160
 0.538000 0.548440
 0.539000 0.548680
 0.540000 0.548760
 0.541000 0.548640
 0.542000 0.548360
 0.543000 0.548120
 0.544000 0.548040
 0.545000 0.548120
 0.546000 0.548320
 0.547000 0.548600
 0.548000 0.548760
 0.549000 0.548760
 0.550000 0.548560
 0.551000 0.548280
 0.552000 0.548000
 0.553000 0.547920
 0.554000 0.548000
 0.555000 0.548280
 0.556000 0.548520
 0.557000 0.548680
 0.558000 0.548600
 0.559000 0.548360
 0.560000 0.548040
 0.561000 0.547800
 0.562000 0.547760
 0.563000 0.547960
 0.564000 0.548280
 0.565000 0.548600
 0.566000 0.548720
 0.567000 0.548600
 0.568000 0.548280
 0.569000 0.547920
 0.570000 0.547720
 0.571000 0.547720
 0.572000 0.547960
 0.573000 0.548280
 0.574000 0.548520
 0.575000 0.548480
 0.576000 0.548200
 0.577000 0.547760
 0.578000 0.547360
 0.579000 0.547200
 0.580000 0.547320
 0.581000 0.547680
 0.582000 0.548000
 0.583000 0.548160
 0.584000 0.548000
 0.585000 0.547560
 0.586000 0.547080
 0.587000 0.546760
 0.588000 0.546760
 0.589000 0.547040
 0.590000 0.547480
 0.591000 0.547760
 0.592000 0.547800
 0.593000 0.547480
 0.594000 0.547000
 0.595000 0.546600
 0.596000 0.546480
 0.597000 0.546680
 0.598000 0.547120
 0.599000 0.547560
 0.600000 0.547800
 0.601000 0.547640
 0.602000 0.547240
 0.603000 0.546720
 0.604000 0.546440
 0.605000 0.546480
 0.606000 0.546840
 0.607000 0.547320
 0.608000 0.547640
 0.609000 0.547600
 0.610000 0.547240
 0.611000 0.546680
 0.612000 0.546200
 0.613000 0.546080
 0.614000 0.546280
 0.615000 0.546680
 0.616000 0.547080
 0.617000 0.547200
 0.618000 0.547000
 0.619000 0.546560
 0.620000 0.546080
 0.621000 0.545800
 0.622000 0.545920
 0.623000 0.546280
 0.624000 0.546720
 0.625000 0.546960
 0.626000 0.546880
 0.627000 0.546520
 0.628000 0.546000
 0.629000 0.545640
 0.630000 0.545600
 0.631000 0.545840
 0.632000 0.546280
 0.633000 0.546680
 0.634000 0.546800
 0.635000 0.546600
 0.636000 0.546200
 0.637000 0.545840
 0.638000 0.545680
 0.639000 0.545840
 0.640000 0.546240
 0.641000 0.546640
 0.642000 0.546840
 0.643000 0.546720
 0.644000 0.546360
 0.645000 0.545960
 0.646000 0.545680
 0.647000 0.545640
 0.648000 0.545880
 0.649000 0.546160
 0.650000 0.546360
 0.651000 0.546320
 0.652000 0.546040
 0.653000 0.545640
 0.654000 0.545360
 0.655000 0.545280
 0.656000 0.545440
 0.657000 0.545720
 0.658000 0.545960
 0.659000 0.546040
 0.660000 0.545920
 0.661000 0.545680
 0.662000 0.545400
 0.663000 0.545280
 0.664000 0.545320
 0.665000 0.545520
 0.666000 0.545720
 0.667000 0.545840
 0.668000 0.545720
 0.669000 0.545480
 0.670000 0.545200
 0.671000 0.545040
 0.672000 0.545040
 0.673000 0.545160
 0.674000 0.545320
 0.675000 0.545440
 0.676000 0.545440
 0.677000 0.545320
 0.678000 0.545160
 0.679000 0.545040
 0.680000 0.545000
 0.681000 0.545120
 0.682000 0.545280
 0.683000 0.545400
 0.684000 0.545400
 0.685000 0.545360
 0.686000 0.545240
 0.687000 0.545120
 0.688000 0.545120
 0.689000 0.545200
 0.690000 0.545360
 0.691000 0.545440
 0.692000 0.545480
 0.693000 0.545440
 0.694000 0.545360
 0.695000 0.545320
 0.696000 0.545320
 0.697000 0.545400
 0.698000 0.545520
 0.699000 0.545600
 0.700000 0.545640
 0.701000 0.545560
 0.702000 0.545480
 0.703000 0.545440
 0.704000 0.545480
 0.705000 0.545560
 0.706000 0.545640
 0.707000 0.545720
 0.708000 0.545760
 0.709000 0.545720
 0.710000 0.545640
 0.711000 0.545600
 0.712000 0.545600
 0.713000 0.545680
 0.714000 0.545760
 0.715000 0.545800
 0.716000 0.545760
 0.717000 0.545680
 0.718000 0.545520
 0.719000 0.545360
 0.720000 0.545280
 0.721000 0.545280
 0.722000 0.545360
 0.723000 0.545440
 0.724000 0.545480
 0.725000 0.545440
 0.726000 0.545360
 0.727000 0.545280
 0.728000 0.545240
 0.729000 0.545280
 0.730000 0.545360
 0.731000 0.545480
 0.732000 0.545520
 0.733000 0.545520
 0.734000 0.545400
 0.735000 0.545280
 0.736000 0.545160
 0.737000 0.545080
 0.738000 0.545120
 0.739000 0.545200
 0.740000 0.545280
 0.741000 0.545320
 0.742000 0.545240
 0.743000 0.545120
 0.744000 0.544960
 0.745000 0.544840
 0.746000 0.544800
 0.747000 0.544840
 0.748000 0.544920
 0.749000 0.545000
 0.750000 0.545040
 0.751000 0.544960
 0.752000 0.544840
 0.753000 0.544680
 0.754000 0.544600
 0.755000 0.544640
 0.756000 0.544720
 0.757000 0.544880
 0.758000 0.545040
 0.759000 0.545080
 0.760000 0.545040
 0.761000 0.544920
 0.762000 0.544800
 0.763000 0.544720
 0.764000 0.544760
 0.765000 0.544880
 0.766000 0.545000
 0.767000 0.545080
 0.768000 0.545040
 0.769000 0.544840
 0.770000 0.544600
 0.771000 0.544360
 0.772000 0.544280
 0.773000 0.544360
 0.774000 0.544520
 0.775000 0.544680
 0.776000 0.544720
 0.777000 0.544640
 0.778000 0.544400
 0.779000 0.544160
 0.780000 0.544000
 0.781000 0.544000
 0.782000 0.544160
 0.783000 0.544400
 0.784000 0.544560
 0.785000 0.544520
 0.786000 0.544320
 0.787000 0.544000
 0.788000 0.543720
 0.789000 0.543600
 0.790000 0.543720
 0.791000 0.543960
 0.792000 0.544200
 0.793000 0.544280
 0.794000 0.544160
 0.795000 0.543840
 0.796000 0.543480
 0.797000 0.543280
 0.798000 0.543320
 0.799000 0.543560
 0.800000 0.543840
 0.801000 0.544040
 0.802000 0.543960
 0.803000 0.543640
 0.804000 0.543200
 0.805000 0.542800
 0.806000 0.542640
 0.807000 0.542760
 0.808000 0.543040
 0.809000 0.543280
 0.810000 0.543320
 0.811000 0.543120
 0.812000 0.542720
 0.813000 0.542320
 0.814000 0.542080
 0.815000 0.542120
 0.816000 0.542400
 0.817000 0.542720
 0.818000 0.542880
 0.819000 0.542760
 0.820000 0.542400
 0.821000 0.541920
 0.822000 0.541520
 0.823000 0.541400
 0.824000 0.541520
 0.825000 0.541800
 0.826000 0.542000
 0.827000 0.541960
 0.828000 0.541680
 0.829000 0.541240
 0.830000 0.540840
 0.831000 0.540640
 0.832000 0.540680
 0.833000 0.540960
 0.834000 0.541240
 0.835000 0.541320
 0.836000 0.541160
 0.837000 0.540760
 0.838000 0.540320
 0.839000 0.539960
 0.840000 0.539880
 0.841000 0.540040
 0.842000 0.540240
 0.843000 0.540400
 0.844000 0.540320
 0.845000 0.540040
 0.846000 0.539600
 0.847000 0.539240
 0.848000 0.539040
 0.849000 0.539080
 0.850000 0.539240
 0.851000 0.539400
 0.852000 0.539400
 0.853000 0.539200
 0.854000 0.538840
 0.855000 0.538440
 0.856000 0.538200
 0.857000 0.538120
 0.858000 0.538200
 0.859000 0.538320
 0.860000 0.538320
 0.861000 0.538200
 0.862000 0.537920
 0.863000 0.537560
 0.864000 0.537280
 0.865000 0.537120
 0.866000 0.537120
 0.867000 0.537200
 0.868000 0.537200
 0.869000 0.537120
 0.870000 0.536920
 0.871000 0.536640
 0.872000 0.536320
 0.873000 0.536120
 0.874000 0.536000
 0.875000 0.535920
 0.876000 0.535880
 0.877000 0.535760
 0.878000 0.535600
 0.879000 0.535400
 0.880000 0.535200
 0.881000 0.535000
 0.882000 0.534840
 0.883000 0.534720
 0.884000 0.534600
 0.885000 0.534480
 0.886000 0.534360
 0.887000 0.534160
 0.888000 0.534000
 0.889000 0.533800
 0.890000 0.533600
 0.891000 0.533440
 0.892000 0.533240
 0.893000 0.533040
 0.894000 0.532840
 0.895000 0.532720
 0.896000 0.532560
 0.897000 0.532400
 0.898000 0.532240
 0.899000 0.532000
 0.900000 0.531720
 0.901000 0.531400
 0.902000 0.531160
 0.903000 0.530960
 0.904000 0.530840
 0.905000 0.530720
 0.906000 0.530560
 0.907000 0.530360
 0.908000 0.530080
 0.909000 0.529720
 0.910000 0.529400
 0.911000 0.529160
 0.912000 0.529040
 0.913000 0.528960
 0.914000 0.528840
 0.915000 0.528680
 0.916000 0.528400
 0.917000 0.528000
 0.918000 0.527640
 0.919000 0.527320
 0.920000 0.527120
 0.921000 0.527040
 0.922000 0.527000
 0.923000 0.526880
 0.924000 0.526600
 0.925000 0.526240
 0.926000 0.525840
 0.927000 0.525440
 0.928000 0.525160
 0.929000 0.525040
 0.930000 0.525000
 0.931000 0.524920
 0.932000 0.524680
 0.933000 0.524320
 0.934000 0.523880
 0.935000 0.523400
 0.936000 0.523040
 0.937000 0.522800
 0.938000 0.522720
 0.939000 0.522640
 0.940000 0.522480
 0.941000 0.522200
 0.942000 0.521800
 0.943000 0.521320
 0.944000 0.520920
 0.945000 0.520640
 0.946000 0.520520
 0.947000 0.520440
 0.948000 0.520320
 0.949000 0.520120
 0.950000 0.519720
 0.951000 0.519280
 0.952000 0.518800
 0.953000 0.518360
 0.954000 0.518080
 0.955000 0.517920
 0.956000 0.517800
 0.957000 0.517600
 0.958000 0.517280
 0.959000 0.516840
 0.960000 0.516360
 0.961000 0.515880
 0.962000 0.515520
 0.963000 0.515280
 0.964000 0.515160
 0.965000 0.515000
 0.966000 0.514800
 0.967000 0.514480
 0.968000 0.514080
 0.969000 0.513640
 0.970000 0.513280
 0.971000 0.513000
 0.972000 0.512800
 0.973000 0.512680
 0.974000 0.512560
 0.975000 0.512360
 0.976000 0.512040
 0.977000 0.511640
 0.978000 0.511200
 0.979000 0.510800
 0.980000 0.510480
 0.981000 0.510280
 0.982000 0.510120
 0.983000 0.509920
 0.984000 0.509600
 0.985000 0.509160
 0.986000 0.508680
 0.987000 0.508160
 0.988000 0.507680
