# Heisenberg S=1/2 chain with anisotropy 
# L=32, J=1.0 , Delta=1.5, Delta_{2}  = 0.00, deltaJ = 0.00, deltah = 0.40
# High-T dynamical diffusion
# Frequency omega/J, Dynamical diffusion D(omega)

 0.000000 0.154360
 0.001000 0.154320
 0.002000 0.154280
 0.003000 0.154280
 0.004000 0.154440
 0.005000 0.154720
 0.006000 0.155200
 0.007000 0.155760
 0.008000 0.156400
 0.009000 0.156960
 0.010000 0.157480
 0.011000 0.158000
 0.012000 0.158520
 0.013000 0.159200
 0.014000 0.160040
 0.015000 0.161040
 0.016000 0.162120
 0.017000 0.163240
 0.018000 0.164280
 0.019000 0.165240
 0.020000 0.166200
 0.021000 0.167160
 0.022000 0.168280
 0.023000 0.169520
 0.024000 0.170880
 0.025000 0.172320
 0.026000 0.173760
 0.027000 0.175080
 0.028000 0.176320
 0.029000 0.177560
 0.030000 0.178800
 0.031000 0.180160
 0.032000 0.181640
 0.033000 0.183240
 0.034000 0.184880
 0.035000 0.186480
 0.036000 0.187960
 0.037000 0.189360
 0.038000 0.190720
 0.039000 0.192080
 0.040000 0.193560
 0.041000 0.195200
 0.042000 0.196880
 0.043000 0.198600
 0.044000 0.200280
 0.045000 0.201840
 0.046000 0.203320
 0.047000 0.204720
 0.048000 0.206160
 0.049000 0.207720
 0.050000 0.209400
 0.051000 0.211160
 0.052000 0.212920
 0.053000 0.214600
 0.054000 0.216160
 0.055000 0.217640
 0.056000 0.219040
 0.057000 0.220520
 0.058000 0.222040
 0.059000 0.223720
 0.060000 0.225480
 0.061000 0.227240
 0.062000 0.228960
 0.063000 0.230520
 0.064000 0.232000
 0.065000 0.233400
 0.066000 0.234840
 0.067000 0.236360
 0.068000 0.238040
 0.069000 0.239840
 0.070000 0.241600
 0.071000 0.243280
 0.072000 0.244800
 0.073000 0.246200
 0.074000 0.247520
 0.075000 0.248880
 0.076000 0.250400
 0.077000 0.252040
 0.078000 0.253800
 0.079000 0.255560
 0.080000 0.257200
 0.081000 0.258640
 0.082000 0.259920
 0.083000 0.261160
 0.084000 0.262440
 0.085000 0.263880
 0.086000 0.265560
 0.087000 0.267280
 0.088000 0.269000
 0.089000 0.270520
 0.090000 0.271840
 0.091000 0.272960
 0.092000 0.274080
 0.093000 0.275280
 0.094000 0.276760
 0.095000 0.278440
 0.096000 0.280200
 0.097000 0.281840
 0.098000 0.283280
 0.099000 0.284480
 0.100000 0.285480
 0.101000 0.286520
 0.102000 0.287760
 0.103000 0.289240
 0.104000 0.290960
 0.105000 0.292720
 0.106000 0.294280
 0.107000 0.295520
 0.108000 0.296520
 0.109000 0.297360
 0.110000 0.298320
 0.111000 0.299520
 0.112000 0.301080
 0.113000 0.302800
 0.114000 0.304520
 0.115000 0.305920
 0.116000 0.307000
 0.117000 0.307800
 0.118000 0.308520
 0.119000 0.309480
 0.120000 0.310760
 0.121000 0.312320
 0.122000 0.314000
 0.123000 0.315520
 0.124000 0.316720
 0.125000 0.317480
 0.126000 0.318080
 0.127000 0.318680
 0.128000 0.319640
 0.129000 0.320960
 0.130000 0.322520
 0.131000 0.324120
 0.132000 0.325440
 0.133000 0.326320
 0.134000 0.326840
 0.135000 0.327280
 0.136000 0.327880
 0.137000 0.328840
 0.138000 0.330160
 0.139000 0.331680
 0.140000 0.333080
 0.141000 0.334080
 0.142000 0.334680
 0.143000 0.334960
 0.144000 0.335240
 0.145000 0.335840
 0.146000 0.336840
 0.147000 0.338120
 0.148000 0.339480
 0.149000 0.340560
 0.150000 0.341240
 0.151000 0.341480
 0.152000 0.341560
 0.153000 0.341800
 0.154000 0.342360
 0.155000 0.343360
 0.156000 0.344560
 0.157000 0.345720
 0.158000 0.346480
 0.159000 0.346840
 0.160000 0.346880
 0.161000 0.346880
 0.162000 0.347120
 0.163000 0.347720
 0.164000 0.348680
 0.165000 0.349720
 0.166000 0.350600
 0.167000 0.351040
 0.168000 0.351120
 0.169000 0.351000
 0.170000 0.351000
 0.171000 0.351320
 0.172000 0.351960
 0.173000 0.352840
 0.174000 0.353720
 0.175000 0.354280
 0.176000 0.354440
 0.177000 0.354320
 0.178000 0.354120
 0.179000 0.354160
 0.180000 0.354480
 0.181000 0.355120
 0.182000 0.355880
 0.183000 0.356480
 0.184000 0.356800
 0.185000 0.356800
 0.186000 0.356640
 0.187000 0.356520
 0.188000 0.356640
 0.189000 0.357080
 0.190000 0.357680
 0.191000 0.358320
 0.192000 0.358760
 0.193000 0.358920
 0.194000 0.358840
 0.195000 0.358680
 0.196000 0.358600
 0.197000 0.358800
 0.198000 0.359160
 0.199000 0.359680
 0.200000 0.360120
 0.201000 0.360360
 0.202000 0.360400
 0.203000 0.360280
 0.204000 0.360200
 0.205000 0.360240
 0.206000 0.360480
 0.207000 0.360840
 0.208000 0.361240
 0.209000 0.361560
 0.210000 0.361760
 0.211000 0.361800
 0.212000 0.361760
 0.213000 0.361760
 0.214000 0.361880
 0.215000 0.362120
 0.216000 0.362400
 0.217000 0.362680
 0.218000 0.362880
 0.219000 0.363000
 0.220000 0.363040
 0.221000 0.363080
 0.222000 0.363120
 0.223000 0.363200
 0.224000 0.363400
 0.225000 0.363600
 0.226000 0.363800
 0.227000 0.363960
 0.228000 0.364160
 0.229000 0.364280
 0.230000 0.364400
 0.231000 0.364520
 0.232000 0.364640
 0.233000 0.364760
 0.234000 0.364920
 0.235000 0.365120
 0.236000 0.365360
 0.237000 0.365640
 0.238000 0.365880
 0.239000 0.366040
 0.240000 0.366160
 0.241000 0.366240
 0.242000 0.366360
 0.243000 0.366520
 0.244000 0.366760
 0.245000 0.367080
 0.246000 0.367400
 0.247000 0.367720
 0.248000 0.367920
 0.249000 0.368000
 0.250000 0.368040
 0.251000 0.368120
 0.252000 0.368320
 0.253000 0.368640
 0.254000 0.369040
 0.255000 0.369480
 0.256000 0.369800
 0.257000 0.369960
 0.258000 0.369960
 0.259000 0.369960
 0.260000 0.370000
 0.261000 0.370240
 0.262000 0.370640
 0.263000 0.371120
 0.264000 0.371560
 0.265000 0.371840
 0.266000 0.371960
 0.267000 0.372000
 0.268000 0.372000
 0.269000 0.372160
 0.270000 0.372520
 0.271000 0.373080
 0.272000 0.373680
 0.273000 0.374160
 0.274000 0.374480
 0.275000 0.374560
 0.276000 0.374560
 0.277000 0.374640
 0.278000 0.374880
 0.279000 0.375320
 0.280000 0.375960
 0.281000 0.376560
 0.282000 0.377040
 0.283000 0.377280
 0.284000 0.377360
 0.285000 0.377400
 0.286000 0.377560
 0.287000 0.377960
 0.288000 0.378560
 0.289000 0.379240
 0.290000 0.379840
 0.291000 0.380240
 0.292000 0.380440
 0.293000 0.380520
 0.294000 0.380600
 0.295000 0.380880
 0.296000 0.381320
 0.297000 0.381960
 0.298000 0.382640
 0.299000 0.383160
 0.300000 0.383520
 0.301000 0.383680
 0.302000 0.383760
 0.303000 0.383920
 0.304000 0.384240
 0.305000 0.384760
 0.306000 0.385400
 0.307000 0.386040
 0.308000 0.386520
 0.309000 0.386840
 0.310000 0.387000
 0.311000 0.387120
 0.312000 0.387400
 0.313000 0.387800
 0.314000 0.388400
 0.315000 0.389040
 0.316000 0.389680
 0.317000 0.390160
 0.318000 0.390520
 0.319000 0.390760
 0.320000 0.391040
 0.321000 0.391400
 0.322000 0.391920
 0.323000 0.392520
 0.324000 0.393160
 0.325000 0.393760
 0.326000 0.394240
 0.327000 0.394640
 0.328000 0.394920
 0.329000 0.395280
 0.330000 0.395680
 0.331000 0.396200
 0.332000 0.396840
 0.333000 0.397480
 0.334000 0.398080
 0.335000 0.398600
 0.336000 0.399040
 0.337000 0.399440
 0.338000 0.399840
 0.339000 0.400280
 0.340000 0.400800
 0.341000 0.401400
 0.342000 0.402000
 0.343000 0.402600
 0.344000 0.403120
 0.345000 0.403600
 0.346000 0.404000
 0.347000 0.404400
 0.348000 0.404800
 0.349000 0.405280
 0.350000 0.405840
 0.351000 0.406480
 0.352000 0.407120
 0.353000 0.407720
 0.354000 0.408240
 0.355000 0.408720
 0.356000 0.409160
 0.357000 0.409640
 0.358000 0.410160
 0.359000 0.410760
 0.360000 0.411480
 0.361000 0.412200
 0.362000 0.412920
 0.363000 0.413520
 0.364000 0.414040
 0.365000 0.414480
 0.366000 0.414920
 0.367000 0.415400
 0.368000 0.416040
 0.369000 0.416800
 0.370000 0.417600
 0.371000 0.418320
 0.372000 0.418960
 0.373000 0.419400
 0.374000 0.419800
 0.375000 0.420240
 0.376000 0.420720
 0.377000 0.421400
 0.378000 0.422240
 0.379000 0.423080
 0.380000 0.423840
 0.381000 0.424440
 0.382000 0.424880
 0.383000 0.425240
 0.384000 0.425640
 0.385000 0.426160
 0.386000 0.426880
 0.387000 0.427760
 0.388000 0.428640
 0.389000 0.429360
 0.390000 0.429920
 0.391000 0.430320
 0.392000 0.430640
 0.393000 0.431000
 0.394000 0.431560
 0.395000 0.432320
 0.396000 0.433200
 0.397000 0.434080
 0.398000 0.434800
 0.399000 0.435320
 0.400000 0.435680
 0.401000 0.435960
 0.402000 0.436360
 0.403000 0.437000
 0.404000 0.437840
 0.405000 0.438800
 0.406000 0.439720
 0.407000 0.440480
 0.408000 0.440960
 0.409000 0.441280
 0.410000 0.441560
 0.411000 0.442000
 0.412000 0.442680
 0.413000 0.443560
 0.414000 0.444600
 0.415000 0.445520
 0.416000 0.446200
 0.417000 0.446640
 0.418000 0.446920
 0.419000 0.447240
 0.420000 0.447680
 0.421000 0.448440
 0.422000 0.449400
 0.423000 0.450400
 0.424000 0.451320
 0.425000 0.451960
 0.426000 0.452360
 0.427000 0.452640
 0.428000 0.452920
 0.429000 0.453480
 0.430000 0.454320
 0.431000 0.455400
 0.432000 0.456520
 0.433000 0.457400
 0.434000 0.458040
 0.435000 0.458360
 0.436000 0.458560
 0.437000 0.458880
 0.438000 0.459440
 0.439000 0.460360
 0.440000 0.461440
 0.441000 0.462480
 0.442000 0.463320
 0.443000 0.463800
 0.444000 0.464040
 0.445000 0.464200
 0.446000 0.464560
 0.447000 0.465200
 0.448000 0.466200
 0.449000 0.467360
 0.450000 0.468400
 0.451000 0.469160
 0.452000 0.469560
 0.453000 0.469720
 0.454000 0.469880
 0.455000 0.470240
 0.456000 0.470960
 0.457000 0.471960
 0.458000 0.473080
 0.459000 0.474040
 0.460000 0.474680
 0.461000 0.474920
 0.462000 0.475000
 0.463000 0.475120
 0.464000 0.475560
 0.465000 0.476400
 0.466000 0.477520
 0.467000 0.478680
 0.468000 0.479600
 0.469000 0.480200
 0.470000 0.480400
 0.471000 0.480480
 0.472000 0.480720
 0.473000 0.481280
 0.474000 0.482240
 0.475000 0.483400
 0.476000 0.484520
 0.477000 0.485360
 0.478000 0.485760
 0.479000 0.485880
 0.480000 0.485920
 0.481000 0.486200
 0.482000 0.486800
 0.483000 0.487760
 0.484000 0.488880
 0.485000 0.489880
 0.486000 0.490560
 0.487000 0.490880
 0.488000 0.490960
 0.489000 0.491040
 0.490000 0.491400
 0.491000 0.492080
 0.492000 0.493080
 0.493000 0.494160
 0.494000 0.495080
 0.495000 0.495640
 0.496000 0.495920
 0.497000 0.495960
 0.498000 0.496080
 0.499000 0.496480
 0.500000 0.497200
 0.501000 0.498120
 0.502000 0.499080
 0.503000 0.499880
 0.504000 0.500320
 0.505000 0.500480
 0.506000 0.500520
 0.507000 0.500680
 0.508000 0.501080
 0.509000 0.501800
 0.510000 0.502680
 0.511000 0.503600
 0.512000 0.504360
 0.513000 0.504800
 0.514000 0.505000
 0.515000 0.505120
 0.516000 0.505320
 0.517000 0.505720
 0.518000 0.506440
 0.519000 0.507320
 0.520000 0.508200
 0.521000 0.508920
 0.522000 0.509360
 0.523000 0.509520
 0.524000 0.509560
 0.525000 0.509680
 0.526000 0.510000
 0.527000 0.510600
 0.528000 0.511400
 0.529000 0.512240
 0.530000 0.512920
 0.531000 0.513280
 0.532000 0.513400
 0.533000 0.513360
 0.534000 0.513400
 0.535000 0.513720
 0.536000 0.514360
 0.537000 0.515200
 0.538000 0.516120
 0.539000 0.516800
 0.540000 0.517160
 0.541000 0.517160
 0.542000 0.517040
 0.543000 0.516960
 0.544000 0.517240
 0.545000 0.517880
 0.546000 0.518760
 0.547000 0.519640
 0.548000 0.520240
 0.549000 0.520400
 0.550000 0.520240
 0.551000 0.519920
 0.552000 0.519760
 0.553000 0.520040
 0.554000 0.520760
 0.555000 0.521760
 0.556000 0.522640
 0.557000 0.523160
 0.558000 0.523240
 0.559000 0.522880
 0.560000 0.522520
 0.561000 0.522440
 0.562000 0.522880
 0.563000 0.523800
 0.564000 0.524880
 0.565000 0.525720
 0.566000 0.526080
 0.567000 0.525880
 0.568000 0.525320
 0.569000 0.524840
 0.570000 0.524840
 0.571000 0.525400
 0.572000 0.526400
 0.573000 0.527480
 0.574000 0.528160
 0.575000 0.528240
 0.576000 0.527800
 0.577000 0.527120
 0.578000 0.526680
 0.579000 0.526880
 0.580000 0.527640
 0.581000 0.528800
 0.582000 0.529800
 0.583000 0.530280
 0.584000 0.530120
 0.585000 0.529440
 0.586000 0.528720
 0.587000 0.528440
 0.588000 0.528840
 0.589000 0.529800
 0.590000 0.530960
 0.591000 0.531760
 0.592000 0.531960
 0.593000 0.531480
 0.594000 0.530680
 0.595000 0.530000
 0.596000 0.529920
 0.597000 0.530480
 0.598000 0.531480
 0.599000 0.532440
 0.600000 0.532960
 0.601000 0.532760
 0.602000 0.532040
 0.603000 0.531160
 0.604000 0.530640
 0.605000 0.530760
 0.606000 0.531480
 0.607000 0.532480
 0.608000 0.533240
 0.609000 0.533440
 0.610000 0.533040
 0.611000 0.532200
 0.612000 0.531440
 0.613000 0.531160
 0.614000 0.531520
 0.615000 0.532360
 0.616000 0.533320
 0.617000 0.533880
 0.618000 0.533880
 0.619000 0.533320
 0.620000 0.532560
 0.621000 0.532000
 0.622000 0.531920
 0.623000 0.532440
 0.624000 0.533240
 0.625000 0.533960
 0.626000 0.534240
 0.627000 0.533920
 0.628000 0.533240
 0.629000 0.532480
 0.630000 0.532040
 0.631000 0.532120
 0.632000 0.532680
 0.633000 0.533360
 0.634000 0.533880
 0.635000 0.534000
 0.636000 0.533640
 0.637000 0.533000
 0.638000 0.532440
 0.639000 0.532240
 0.640000 0.532480
 0.641000 0.533000
 0.642000 0.533600
 0.643000 0.533920
 0.644000 0.533840
 0.645000 0.533400
 0.646000 0.532800
 0.647000 0.532320
 0.648000 0.532200
 0.649000 0.532440
 0.650000 0.532880
 0.651000 0.533320
 0.652000 0.533520
 0.653000 0.533400
 0.654000 0.532960
 0.655000 0.532480
 0.656000 0.532120
 0.657000 0.532080
 0.658000 0.532280
 0.659000 0.532680
 0.660000 0.533000
 0.661000 0.533080
 0.662000 0.532880
 0.663000 0.532480
 0.664000 0.532040
 0.665000 0.531720
 0.666000 0.531680
 0.667000 0.531880
 0.668000 0.532240
 0.669000 0.532560
 0.670000 0.532640
 0.671000 0.532520
 0.672000 0.532160
 0.673000 0.531760
 0.674000 0.531520
 0.675000 0.531560
 0.676000 0.531800
 0.677000 0.532120
 0.678000 0.532400
 0.679000 0.532480
 0.680000 0.532280
 0.681000 0.531920
 0.682000 0.531560
 0.683000 0.531320
 0.684000 0.531360
 0.685000 0.531640
 0.686000 0.532000
 0.687000 0.532240
 0.688000 0.532240
 0.689000 0.532000
 0.690000 0.531600
 0.691000 0.531200
 0.692000 0.531000
 0.693000 0.531080
 0.694000 0.531360
 0.695000 0.531680
 0.696000 0.531840
 0.697000 0.531760
 0.698000 0.531400
 0.699000 0.530920
 0.700000 0.530560
 0.701000 0.530440
 0.702000 0.530560
 0.703000 0.530880
 0.704000 0.531200
 0.705000 0.531280
 0.706000 0.531120
 0.707000 0.530760
 0.708000 0.530360
 0.709000 0.530120
 0.710000 0.530120
 0.711000 0.530400
 0.712000 0.530800
 0.713000 0.531080
 0.714000 0.531120
 0.715000 0.530880
 0.716000 0.530480
 0.717000 0.530120
 0.718000 0.529960
 0.719000 0.530040
 0.720000 0.530320
 0.721000 0.530600
 0.722000 0.530720
 0.723000 0.530600
 0.724000 0.530240
 0.725000 0.529840
 0.726000 0.529560
 0.727000 0.529480
 0.728000 0.529640
 0.729000 0.529920
 0.730000 0.530120
 0.731000 0.530160
 0.732000 0.530000
 0.733000 0.529680
 0.734000 0.529400
 0.735000 0.529320
 0.736000 0.529400
 0.737000 0.529640
 0.738000 0.529880
 0.739000 0.530000
 0.740000 0.529960
 0.741000 0.529760
 0.742000 0.529520
 0.743000 0.529400
 0.744000 0.529400
 0.745000 0.529560
 0.746000 0.529760
 0.747000 0.529960
 0.748000 0.530000
 0.749000 0.529960
 0.750000 0.529840
 0.751000 0.529720
 0.752000 0.529680
 0.753000 0.529720
 0.754000 0.529840
 0.755000 0.529960
 0.756000 0.530000
 0.757000 0.529920
 0.758000 0.529840
 0.759000 0.529720
 0.760000 0.529680
 0.761000 0.529680
 0.762000 0.529720
 0.763000 0.529800
 0.764000 0.529880
 0.765000 0.529920
 0.766000 0.529920
 0.767000 0.529960
 0.768000 0.530000
 0.769000 0.530040
 0.770000 0.530120
 0.771000 0.530160
 0.772000 0.530200
 0.773000 0.530240
 0.774000 0.530280
 0.775000 0.530280
 0.776000 0.530360
 0.777000 0.530400
 0.778000 0.530400
 0.779000 0.530400
 0.780000 0.530320
 0.781000 0.530240
 0.782000 0.530200
 0.783000 0.530240
 0.784000 0.530320
 0.785000 0.530400
 0.786000 0.530480
 0.787000 0.530480
 0.788000 0.530440
 0.789000 0.530400
 0.790000 0.530360
 0.791000 0.530440
 0.792000 0.530520
 0.793000 0.530680
 0.794000 0.530800
 0.795000 0.530840
 0.796000 0.530760
 0.797000 0.530640
 0.798000 0.530560
 0.799000 0.530560
 0.800000 0.530640
 0.801000 0.530800
 0.802000 0.531000
 0.803000 0.531120
 0.804000 0.531120
 0.805000 0.531080
 0.806000 0.531000
 0.807000 0.530960
 0.808000 0.531040
 0.809000 0.531240
 0.810000 0.531440
 0.811000 0.531600
 0.812000 0.531680
 0.813000 0.531640
 0.814000 0.531560
 0.815000 0.531520
 0.816000 0.531520
 0.817000 0.531640
 0.818000 0.531840
 0.819000 0.532000
 0.820000 0.532120
 0.821000 0.532120
 0.822000 0.532080
 0.823000 0.532000
 0.824000 0.532000
 0.825000 0.532080
 0.826000 0.532240
 0.827000 0.532400
 0.828000 0.532520
 0.829000 0.532560
 0.830000 0.532560
 0.831000 0.532480
 0.832000 0.532440
 0.833000 0.532440
 0.834000 0.532520
 0.835000 0.532640
 0.836000 0.532800
 0.837000 0.532880
 0.838000 0.532880
 0.839000 0.532880
 0.840000 0.532920
 0.841000 0.532960
 0.842000 0.533040
 0.843000 0.533160
 0.844000 0.533280
 0.845000 0.533360
 0.846000 0.533440
 0.847000 0.533440
 0.848000 0.533440
 0.849000 0.533440
 0.850000 0.533480
 0.851000 0.533520
 0.852000 0.533560
 0.853000 0.533600
 0.854000 0.533600
 0.855000 0.533600
 0.856000 0.533640
 0.857000 0.533640
 0.858000 0.533680
 0.859000 0.533720
 0.860000 0.533680
 0.861000 0.533680
 0.862000 0.533600
 0.863000 0.533560
 0.864000 0.533560
 0.865000 0.533600
 0.866000 0.533680
 0.867000 0.533720
 0.868000 0.533760
 0.869000 0.533760
 0.870000 0.533680
 0.871000 0.533600
 0.872000 0.533560
 0.873000 0.533560
 0.874000 0.533640
 0.875000 0.533720
 0.876000 0.533760
 0.877000 0.533720
 0.878000 0.533600
 0.879000 0.533440
 0.880000 0.533320
 0.881000 0.533280
 0.882000 0.533320
 0.883000 0.533440
 0.884000 0.533600
 0.885000 0.533640
 0.886000 0.533600
 0.887000 0.533440
 0.888000 0.533280
 0.889000 0.533120
 0.890000 0.533120
 0.891000 0.533240
 0.892000 0.533480
 0.893000 0.533640
 0.894000 0.533720
 0.895000 0.533600
 0.896000 0.533400
 0.897000 0.533200
 0.898000 0.533080
 0.899000 0.533120
 0.900000 0.533320
 0.901000 0.533600
 0.902000 0.533760
 0.903000 0.533760
 0.904000 0.533560
 0.905000 0.533160
 0.906000 0.532800
 0.907000 0.532600
 0.908000 0.532640
 0.909000 0.532880
 0.910000 0.533120
 0.911000 0.533240
 0.912000 0.533080
 0.913000 0.532680
 0.914000 0.532120
 0.915000 0.531640
 0.916000 0.531480
 0.917000 0.531600
 0.918000 0.531960
 0.919000 0.532320
 0.920000 0.532480
 0.921000 0.532240
 0.922000 0.531720
 0.923000 0.531160
 0.924000 0.530800
 0.925000 0.530840
 0.926000 0.531280
 0.927000 0.531880
 0.928000 0.532360
 0.929000 0.532400
 0.930000 0.532000
 0.931000 0.531280
 0.932000 0.530560
 0.933000 0.530200
 0.934000 0.530320
 0.935000 0.530840
 0.936000 0.531400
 0.937000 0.531680
 0.938000 0.531400
 0.939000 0.530600
 0.940000 0.529640
 0.941000 0.528880
 0.942000 0.528640
 0.943000 0.529040
 0.944000 0.529720
 0.945000 0.530360
 0.946000 0.530480
 0.947000 0.529960
 0.948000 0.529000
 0.949000 0.527960
 0.950000 0.527360
 0.951000 0.527480
 0.952000 0.528200
 0.953000 0.529080
 0.954000 0.529680
 0.955000 0.529600
 0.956000 0.528800
 0.957000 0.527680
 0.958000 0.526680
 0.959000 0.526360
 0.960000 0.526760
 0.961000 0.527680
 0.962000 0.528600
 0.963000 0.528920
 0.964000 0.528440
 0.965000 0.527320
 0.966000 0.526040
 0.967000 0.525160
 0.968000 0.525080
 0.969000 0.525720
 0.970000 0.526720
 0.971000 0.527400
 0.972000 0.527360
 0.973000 0.526520
 0.974000 0.525160
 0.975000 0.523880
 0.976000 0.523240
 0.977000 0.523440
 0.978000 0.524280
 0.979000 0.525240
 0.980000 0.525720
 0.981000 0.525400
 0.982000 0.524320
 0.983000 0.522960
 0.984000 0.521920
 0.985000 0.521640
 0.986000 0.522200
 0.987000 0.523200
 0.988000 0.524040
