# XXZ spin model with modualted magnetic field S=1/2
# L=14, number_of_particles=7, J=1.0, Delta=1.0
# Diffusion D_{0} for QP (offdiag. ME)
# Field strength W, Diffusion D_{0}

0.50	1.2520000
0.75	0.6678000
1.00	0.4224000
1.25	0.2880000
1.50	0.1976800
1.75	0.1310800
2.00	0.0854800
2.25	0.0561600
2.50	0.0374400
2.75	0.0255600
3.00	0.0182800
3.25	0.0139600
3.50	0.0100800
3.75	0.0076000
4.00	0.0061200
4.25	0.0057600
4.50	0.0048400
