# Random-field Heisenberg model
# L=26, J=1, Delta=1.0, W=3.0, R=0.0
# Conductivity sigma(omega)
# omega/J sigma(omega)

0.000000 0.001606
0.000050 0.001613
0.000100 0.001632
0.000150 0.001662
0.000200 0.001698
0.000250 0.001733
0.000300 0.001762
0.000350 0.001778
0.000400 0.001780
0.000450 0.001769
0.000500 0.001752
0.000550 0.001734
0.000600 0.001722
0.000650 0.001721
0.000700 0.001733
0.000750 0.001760
0.000800 0.001800
0.000850 0.001848
0.000900 0.001898
0.000950 0.001943
0.001000 0.001974
0.001050 0.001987
0.001100 0.001983
0.001150 0.001964
0.001200 0.001940
0.001250 0.001919
0.001300 0.001906
0.001350 0.001908
0.001400 0.001925
0.001450 0.001958
0.001500 0.002002
0.001550 0.002050
0.001600 0.002096
0.001650 0.002130
0.001700 0.002146
0.001750 0.002143
0.001800 0.002126
0.001850 0.002102
0.001900 0.002079
0.001950 0.002067
0.002000 0.002070
0.002050 0.002090
0.002100 0.002127
0.002150 0.002178
0.002200 0.002235
0.002250 0.002290
0.002300 0.002331
0.002350 0.002353
0.002400 0.002351
0.002450 0.002330
0.002500 0.002298
0.002550 0.002264
0.002600 0.002239
0.002650 0.002229
0.002700 0.002237
0.002750 0.002263
0.002800 0.002302
0.002850 0.002348
0.002900 0.002392
0.002950 0.002422
0.003000 0.002432
0.003050 0.002420
0.003100 0.002389
0.003150 0.002348
0.003200 0.002308
0.003250 0.002279
0.003300 0.002266
0.003350 0.002273
0.003400 0.002300
0.003450 0.002345
0.003500 0.002401
0.003550 0.002460
0.003600 0.002510
0.003650 0.002542
0.003700 0.002552
0.003750 0.002539
0.003800 0.002512
0.003850 0.002480
0.003900 0.002454
0.003950 0.002443
0.004000 0.002452
0.004050 0.002481
0.004100 0.002529
0.004150 0.002587
0.004200 0.002647
0.004250 0.002696
0.004300 0.002724
0.004350 0.002725
0.004400 0.002700
0.004450 0.002656
0.004500 0.002606
0.004550 0.002561
0.004600 0.002531
0.004650 0.002521
0.004700 0.002535
0.004750 0.002571
0.004800 0.002625
0.004850 0.002688
0.004900 0.002748
0.004950 0.002796
0.005000 0.002820
0.005050 0.002819
0.005100 0.002797
0.005150 0.002762
0.005200 0.002727
0.005250 0.002704
0.005300 0.002700
0.005350 0.002720
0.005400 0.002763
0.005450 0.002826
0.005500 0.002899
0.005550 0.002972
0.005600 0.003031
0.005650 0.003064
0.005700 0.003066
0.005750 0.003041
0.005800 0.002998
0.005850 0.002951
0.005900 0.002914
0.005950 0.002895
0.006000 0.002901
0.006050 0.002931
0.006100 0.002982
0.006150 0.003046
0.006200 0.003109
0.006250 0.003159
0.006300 0.003182
0.006350 0.003174
0.006400 0.003138
0.006450 0.003086
0.006500 0.003030
0.006550 0.002985
0.006600 0.002960
0.006650 0.002962
0.006700 0.002991
0.006750 0.003044
0.006800 0.003114
0.006850 0.003190
0.006900 0.003255
0.006950 0.003298
0.007000 0.003309
0.007050 0.003288
0.007100 0.003244
0.007150 0.003190
0.007200 0.003141
0.007250 0.003109
0.007300 0.003102
0.007350 0.003121
0.007400 0.003165
0.007450 0.003226
0.007500 0.003292
0.007550 0.003347
0.007600 0.003380
0.007650 0.003380
0.007700 0.003348
0.007750 0.003293
0.007800 0.003229
0.007850 0.003171
0.007900 0.003131
0.007950 0.003116
0.008000 0.003130
0.008050 0.003171
0.008100 0.003232
0.008150 0.003303
0.008200 0.003368
0.008250 0.003414
0.008300 0.003429
0.008350 0.003411
0.008400 0.003366
0.008450 0.003307
0.008500 0.003249
0.008550 0.003205
0.008600 0.003186
0.008650 0.003195
0.008700 0.003230
0.008750 0.003288
0.008800 0.003356
0.008850 0.003420
0.008900 0.003466
0.008950 0.003482
0.009000 0.003464
0.009050 0.003420
0.009100 0.003361
0.009150 0.003303
0.009200 0.003259
0.009250 0.003240
0.009300 0.003248
0.009350 0.003285
0.009400 0.003342
0.009450 0.003410
0.009500 0.003473
0.009550 0.003515
0.009600 0.003525
0.009650 0.003498
0.009700 0.003440
0.009750 0.003365
0.009800 0.003288
0.009850 0.003224
0.009900 0.003184
0.009950 0.003172
0.010000 0.003190
0.010050 0.003235
0.010100 0.003298
0.010150 0.003369
0.010200 0.003431
0.010250 0.003472
0.010300 0.003483
0.010350 0.003463
0.010400 0.003421
0.010450 0.003371
0.010500 0.003328
0.010550 0.003304
0.010600 0.003306
0.010650 0.003337
0.010700 0.003394
0.010750 0.003470
0.010800 0.003551
0.010850 0.003621
0.010900 0.003666
0.010950 0.003676
0.011000 0.003650
0.011050 0.003598
0.011100 0.003535
0.011150 0.003478
0.011200 0.003440
0.011250 0.003430
0.011300 0.003451
0.011350 0.003503
0.011400 0.003576
0.011450 0.003661
0.011500 0.003739
0.011550 0.003797
0.011600 0.003821
0.011650 0.003809
0.011700 0.003769
0.011750 0.003715
0.011800 0.003664
0.011850 0.003630
0.011900 0.003625
0.011950 0.003651
0.012000 0.003707
0.012050 0.003785
0.012100 0.003871
0.012150 0.003947
0.012200 0.003996
0.012250 0.004006
0.012300 0.003973
0.012350 0.003907
0.012400 0.003824
0.012450 0.003743
0.012500 0.003679
0.012550 0.003643
0.012600 0.003641
0.012650 0.003672
0.012700 0.003732
0.012750 0.003808
0.012800 0.003886
0.012850 0.003947
0.012900 0.003978
0.012950 0.003972
0.013000 0.003932
0.013050 0.003870
0.013100 0.003803
0.013150 0.003748
0.013200 0.003717
0.013250 0.003717
0.013300 0.003748
0.013350 0.003805
0.013400 0.003878
0.013450 0.003950
0.013500 0.004004
0.013550 0.004026
0.013600 0.004011
0.013650 0.003962
0.013700 0.003893
0.013750 0.003821
0.013800 0.003762
0.013850 0.003730
0.013900 0.003730
0.013950 0.003764
0.014000 0.003829
0.014050 0.003914
0.014100 0.004005
0.014150 0.004084
0.014200 0.004135
0.014250 0.004147
0.014300 0.004122
0.014350 0.004072
0.014400 0.004013
0.014450 0.003964
0.014500 0.003939
0.014550 0.003948
0.014600 0.003994
0.014650 0.004074
0.014700 0.004179
0.014750 0.004294
0.014800 0.004399
0.014850 0.004474
0.014900 0.004502
0.014950 0.004481
0.015000 0.004418
0.015050 0.004333
0.015100 0.004246
0.015150 0.004177
0.015200 0.004138
0.015250 0.004135
0.015300 0.004169
0.015350 0.004230
0.015400 0.004306
0.015450 0.004379
0.015500 0.004430
0.015550 0.004445
0.015600 0.004421
0.015650 0.004366
0.015700 0.004298
0.015750 0.004234
0.015800 0.004192
0.015850 0.004184
0.015900 0.004215
0.015950 0.004287
0.016000 0.004391
0.016050 0.004514
0.016100 0.004638
0.016150 0.004740
0.016200 0.004801
0.016250 0.004810
0.016300 0.004771
0.016350 0.004701
0.016400 0.004620
0.016450 0.004552
0.016500 0.004511
0.016550 0.004507
0.016600 0.004541
0.016650 0.004605
0.016700 0.004686
0.016750 0.004762
0.016800 0.004814
0.016850 0.004823
0.016900 0.004787
0.016950 0.004711
0.017000 0.004615
0.017050 0.004520
0.017100 0.004445
0.017150 0.004403
0.017200 0.004402
0.017250 0.004441
0.017300 0.004514
0.017350 0.004606
0.017400 0.004698
0.017450 0.004769
0.017500 0.004801
0.017550 0.004786
0.017600 0.004728
0.017650 0.004643
0.017700 0.004554
0.017750 0.004480
0.017800 0.004437
0.017850 0.004433
0.017900 0.004472
0.017950 0.004548
0.018000 0.004650
0.018050 0.004761
0.018100 0.004858
0.018150 0.004923
0.018200 0.004940
0.018250 0.004910
0.018300 0.004845
0.018350 0.004764
0.018400 0.004690
0.018450 0.004641
0.018500 0.004628
0.018550 0.004653
0.018600 0.004714
0.018650 0.004797
0.018700 0.004884
0.018750 0.004952
0.018800 0.004982
0.018850 0.004963
0.018900 0.004899
0.018950 0.004804
0.019000 0.004701
0.019050 0.004611
0.019100 0.004550
0.019150 0.004529
0.019200 0.004550
0.019250 0.004610
0.019300 0.004698
0.019350 0.004796
0.019400 0.004883
0.019450 0.004938
0.019500 0.004948
0.019550 0.004912
0.019600 0.004842
0.019650 0.004758
0.019700 0.004682
0.019750 0.004633
0.019800 0.004621
0.019850 0.004653
0.019900 0.004725
0.019950 0.004828
0.020000 0.004945
0.020050 0.005053
0.020100 0.005130
0.020150 0.005158
0.020200 0.005132
0.020250 0.005063
0.020300 0.004972
0.020350 0.004881
0.020400 0.004812
0.020450 0.004780
0.020500 0.004792
0.020550 0.004847
0.020600 0.004938
0.020650 0.005048
0.020700 0.005155
0.020750 0.005235
0.020800 0.005268
0.020850 0.005247
0.020900 0.005179
0.020950 0.005083
0.021000 0.004983
0.021050 0.004900
0.021100 0.004852
0.021150 0.004846
0.021200 0.004883
0.021250 0.004954
0.021300 0.005044
0.021350 0.005132
0.021400 0.005193
0.021450 0.005208
0.021500 0.005170
0.021550 0.005086
0.021600 0.004974
0.021650 0.004858
0.021700 0.004760
0.021750 0.004696
0.021800 0.004674
0.021850 0.004697
0.021900 0.004759
0.021950 0.004847
0.022000 0.004945
0.022050 0.005029
0.022100 0.005080
0.022150 0.005086
0.022200 0.005047
0.022250 0.004978
0.022300 0.004898
0.022350 0.004830
0.022400 0.004791
0.022450 0.004793
0.022500 0.004839
0.022550 0.004924
0.022600 0.005037
0.022650 0.005159
0.022700 0.005266
0.022750 0.005336
0.022800 0.005352
0.022850 0.005313
0.022900 0.005233
0.022950 0.005134
0.023000 0.005041
0.023050 0.004974
0.023100 0.004946
0.023150 0.004962
0.023200 0.005020
0.023250 0.005109
0.023300 0.005209
0.023350 0.005298
0.023400 0.005353
0.023450 0.005358
0.023500 0.005311
0.023550 0.005225
0.023600 0.005122
0.023650 0.005025
0.023700 0.004954
0.023750 0.004924
0.023800 0.004939
0.023850 0.004997
0.023900 0.005088
0.023950 0.005195
0.024000 0.005295
0.024050 0.005364
0.024100 0.005386
0.024150 0.005356
0.024200 0.005284
0.024250 0.005193
0.024300 0.005105
0.024350 0.005043
0.024400 0.005020
0.024450 0.005043
0.024500 0.005112
0.024550 0.005216
0.024600 0.005338
0.024650 0.005454
0.024700 0.005539
0.024750 0.005571
0.024800 0.005544
0.024850 0.005465
0.024900 0.005354
0.024950 0.005238
0.025000 0.005141
0.025050 0.005079
0.025100 0.005062
0.025150 0.005091
0.025200 0.005157
0.025250 0.005246
0.025300 0.005335
0.025350 0.005400
0.025400 0.005422
0.025450 0.005391
0.025500 0.005316
0.025550 0.005214
0.025600 0.005108
0.025650 0.005022
0.025700 0.004971
0.025750 0.004963
0.025800 0.005000
0.025850 0.005074
0.025900 0.005169
0.025950 0.005264
0.026000 0.005334
0.026050 0.005361
0.026100 0.005333
0.026150 0.005257
0.026200 0.005149
0.026250 0.005035
0.026300 0.004936
0.026350 0.004869
0.026400 0.004846
0.026450 0.004868
0.026500 0.004931
0.026550 0.005023
0.026600 0.005127
0.026650 0.005219
0.026700 0.005278
0.026750 0.005290
0.026800 0.005254
0.026850 0.005181
0.026900 0.005093
0.026950 0.005014
0.027000 0.004961
0.027050 0.004947
0.027100 0.004978
0.027150 0.005050
0.027200 0.005153
0.027250 0.005268
0.027300 0.005372
0.027350 0.005442
0.027400 0.005462
0.027450 0.005429
0.027500 0.005356
0.027550 0.005265
0.027600 0.005180
0.027650 0.005123
0.027700 0.005107
0.027750 0.005139
0.027800 0.005217
0.027850 0.005332
0.027900 0.005468
0.027950 0.005598
0.028000 0.005699
0.028050 0.005746
0.028100 0.005733
0.028150 0.005665
0.028200 0.005563
0.028250 0.005454
0.028300 0.005363
0.028350 0.005309
0.028400 0.005301
0.028450 0.005341
0.028500 0.005424
0.028550 0.005535
0.028600 0.005652
0.028650 0.005749
0.028700 0.005804
0.028750 0.005806
0.028800 0.005759
0.028850 0.005679
0.028900 0.005593
0.028950 0.005524
0.029000 0.005492
0.029050 0.005507
0.029100 0.005572
0.029150 0.005679
0.029200 0.005812
0.029250 0.005947
0.029300 0.006056
0.029350 0.006116
0.029400 0.006113
0.029450 0.006053
0.029500 0.005955
0.029550 0.005847
0.029600 0.005756
0.029650 0.005702
0.029700 0.005698
0.029750 0.005746
0.029800 0.005838
0.029850 0.005956
0.029900 0.006076
0.029950 0.006169
0.030000 0.006209
0.030050 0.006182
0.030100 0.006094
0.030150 0.005964
0.030200 0.005821
0.030250 0.005691
0.030300 0.005598
0.030350 0.005553
0.030400 0.005562
0.030450 0.005618
0.030500 0.005709
0.030550 0.005815
0.030600 0.005909
0.030650 0.005966
0.030700 0.005970
0.030750 0.005920
0.030800 0.005829
0.030850 0.005721
0.030900 0.005624
0.030950 0.005557
0.031000 0.005536
0.031050 0.005565
0.031100 0.005641
0.031150 0.005752
0.031200 0.005877
0.031250 0.005990
0.031300 0.006065
0.031350 0.006083
0.031400 0.006041
0.031450 0.005953
0.031500 0.005844
0.031550 0.005740
0.031600 0.005666
0.031650 0.005637
0.031700 0.005660
0.031750 0.005734
0.031800 0.005846
0.031850 0.005979
0.031900 0.006105
0.031950 0.006197
0.032000 0.006233
0.032050 0.006206
0.032100 0.006126
0.032150 0.006017
0.032200 0.005907
0.032250 0.005822
0.032300 0.005780
0.032350 0.005791
0.032400 0.005857
0.032450 0.005967
0.032500 0.006104
0.032550 0.006243
0.032600 0.006355
0.032650 0.006413
0.032700 0.006406
0.032750 0.006338
0.032800 0.006230
0.032850 0.006112
0.032900 0.006012
0.032950 0.005951
0.033000 0.005941
0.033050 0.005986
0.033100 0.006078
0.033150 0.006200
0.033200 0.006327
0.033250 0.006430
0.033300 0.006483
0.033350 0.006473
0.033400 0.006404
0.033450 0.006295
0.033500 0.006175
0.033550 0.006072
0.033600 0.006009
0.033650 0.005997
0.033700 0.006040
0.033750 0.006130
0.033800 0.006251
0.033850 0.006378
0.033900 0.006483
0.033950 0.006538
0.034000 0.006530
0.034050 0.006462
0.034100 0.006351
0.034150 0.006228
0.034200 0.006118
0.034250 0.006046
0.034300 0.006023
0.034350 0.006054
0.034400 0.006131
0.034450 0.006238
0.034500 0.006351
0.034550 0.006439
0.034600 0.006478
0.034650 0.006455
0.034700 0.006373
0.034750 0.006252
0.034800 0.006121
0.034850 0.006008
0.034900 0.005934
0.034950 0.005912
0.035000 0.005948
0.035050 0.006036
0.035100 0.006163
0.035150 0.006307
0.035200 0.006441
0.035250 0.006534
0.035300 0.006568
0.035350 0.006536
0.035400 0.006452
0.035450 0.006341
0.035500 0.006233
0.035550 0.006155
0.035600 0.006124
0.035650 0.006149
0.035700 0.006229
0.035750 0.006352
0.035800 0.006498
0.035850 0.006638
0.035900 0.006744
0.035950 0.006792
0.036000 0.006772
0.036050 0.006696
0.036100 0.006587
0.036150 0.006476
0.036200 0.006390
0.036250 0.006351
0.036300 0.006367
0.036350 0.006438
0.036400 0.006551
0.036450 0.006684
0.036500 0.006808
0.036550 0.006890
0.036600 0.006906
0.036650 0.006850
0.036700 0.006732
0.036750 0.006581
0.036800 0.006427
0.036850 0.006300
0.036900 0.006219
0.036950 0.006193
0.037000 0.006223
0.037050 0.006298
0.037100 0.006399
0.037150 0.006500
0.037200 0.006572
0.037250 0.006593
0.037300 0.006554
0.037350 0.006463
0.037400 0.006345
0.037450 0.006225
0.037500 0.006132
0.037550 0.006084
0.037600 0.006092
0.037650 0.006158
0.037700 0.006274
0.037750 0.006424
0.037800 0.006582
0.037850 0.006718
0.037900 0.006803
0.037950 0.006820
0.038000 0.006770
0.038050 0.006669
0.038100 0.006548
0.038150 0.006437
0.038200 0.006362
0.038250 0.006339
0.038300 0.006374
0.038350 0.006465
0.038400 0.006596
0.038450 0.006746
0.038500 0.006885
0.038550 0.006983
0.038600 0.007018
0.038650 0.006986
0.038700 0.006902
0.038750 0.006792
0.038800 0.006688
0.038850 0.006618
0.038900 0.006598
0.038950 0.006639
0.039000 0.006736
0.039050 0.006877
0.039100 0.007036
0.039150 0.007183
0.039200 0.007286
0.039250 0.007320
0.039300 0.007281
0.039350 0.007182
0.039400 0.007054
0.039450 0.006930
0.039500 0.006840
0.039550 0.006804
0.039600 0.006833
0.039650 0.006926
0.039700 0.007073
0.039750 0.007253
0.039800 0.007434
0.039850 0.007583
0.039900 0.007670
0.039950 0.007682
0.040000 0.007624
0.040050 0.007521
0.040100 0.007407
0.040150 0.007316
0.040200 0.007273
0.040250 0.007290
0.040300 0.007368
0.040350 0.007493
0.040400 0.007641
0.040450 0.007775
0.040500 0.007861
0.040550 0.007870
0.040600 0.007794
0.040650 0.007648
0.040700 0.007461
0.040750 0.007272
0.040800 0.007112
0.040850 0.007005
0.040900 0.006961
0.040950 0.006981
0.041000 0.007053
0.041050 0.007155
0.041100 0.007257
0.041150 0.007328
0.041200 0.007342
0.041250 0.007290
0.041300 0.007182
0.041350 0.007044
0.041400 0.006908
0.041450 0.006802
0.041500 0.006746
0.041550 0.006751
0.041600 0.006816
0.041650 0.006930
0.041700 0.007070
0.041750 0.007206
0.041800 0.007304
0.041850 0.007337
0.041900 0.007293
0.041950 0.007184
0.042000 0.007034
0.042050 0.006877
0.042100 0.006744
0.042150 0.006657
0.042200 0.006631
0.042250 0.006666
0.042300 0.006756
0.042350 0.006882
0.042400 0.007018
0.042450 0.007130
0.042500 0.007189
0.042550 0.007178
0.042600 0.007099
0.042650 0.006971
0.042700 0.006825
0.042750 0.006692
0.042800 0.006598
0.042850 0.006561
0.042900 0.006586
0.042950 0.006672
0.043000 0.006806
0.043050 0.006967
0.043100 0.007126
0.043150 0.007250
0.043200 0.007314
0.043250 0.007310
0.043300 0.007245
0.043350 0.007147
0.043400 0.007048
0.043450 0.006977
0.043500 0.006957
0.043550 0.006999
0.043600 0.007103
0.043650 0.007257
0.043700 0.007440
0.043750 0.007618
0.043800 0.007757
0.043850 0.007827
0.043900 0.007814
0.043950 0.007730
0.044000 0.007602
0.044050 0.007466
0.044100 0.007355
0.044150 0.007295
0.044200 0.007299
0.044250 0.007367
0.044300 0.007488
0.044350 0.007640
0.044400 0.007792
0.044450 0.007908
0.044500 0.007960
0.044550 0.007939
0.044600 0.007851
0.044650 0.007725
0.044700 0.007595
0.044750 0.007494
0.044800 0.007447
0.044850 0.007468
0.044900 0.007560
0.044950 0.007714
0.045000 0.007910
0.045050 0.008115
0.045100 0.008293
0.045150 0.008408
0.045200 0.008437
0.045250 0.008381
0.045300 0.008262
0.045350 0.008114
0.045400 0.007976
0.045450 0.007880
0.045500 0.007844
0.045550 0.007874
0.045600 0.007960
0.045650 0.008081
0.045700 0.008203
0.045750 0.008288
0.045800 0.008305
0.045850 0.008241
0.045900 0.008104
0.045950 0.007923
0.046000 0.007736
0.046050 0.007576
0.046100 0.007468
0.046150 0.007428
0.046200 0.007457
0.046250 0.007545
0.046300 0.007673
0.046350 0.007808
0.046400 0.007917
0.046450 0.007968
0.046500 0.007945
0.046550 0.007852
0.046600 0.007713
0.046650 0.007563
0.046700 0.007434
0.046750 0.007354
0.046800 0.007339
0.046850 0.007394
0.046900 0.007512
0.046950 0.007677
0.047000 0.007861
0.047050 0.008031
0.047100 0.008153
0.047150 0.008202
0.047200 0.008175
0.047250 0.008087
0.047300 0.007971
0.047350 0.007862
0.047400 0.007793
0.047450 0.007783
0.047500 0.007844
0.047550 0.007972
0.047600 0.008150
0.047650 0.008350
0.047700 0.008534
0.047750 0.008663
0.047800 0.008708
0.047850 0.008660
0.047900 0.008534
0.047950 0.008365
0.048000 0.008191
0.048050 0.008051
0.048100 0.007969
0.048150 0.007958
0.048200 0.008021
0.048250 0.008143
0.048300 0.008299
0.048350 0.008455
0.048400 0.008573
0.048450 0.008620
0.048500 0.008585
0.048550 0.008478
0.048600 0.008330
0.048650 0.008179
0.048700 0.008061
0.048750 0.008002
0.048800 0.008017
0.048850 0.008107
0.048900 0.008261
0.048950 0.008455
0.049000 0.008652
0.049050 0.008813
0.049100 0.008901
0.049150 0.008896
0.049200 0.008806
0.049250 0.008658
0.049300 0.008493
0.049350 0.008350
0.049400 0.008260
0.049450 0.008239
0.049500 0.008290
0.049550 0.008402
0.049600 0.008551
0.049650 0.008700
0.049700 0.008811
0.049750 0.008852
0.049800 0.008808
0.049850 0.008689
0.049900 0.008523
0.049950 0.008348
0.050000 0.008202
0.050050 0.008113
0.050100 0.008094
0.050150 0.008149
0.050200 0.008266
0.050250 0.008422
0.050300 0.008583
0.050350 0.008709
0.050400 0.008765
0.050450 0.008735
0.050500 0.008626
0.050550 0.008465
0.050600 0.008291
0.050650 0.008142
0.050700 0.008047
0.050750 0.008023
0.050800 0.008076
0.050850 0.008199
0.050900 0.008371
0.050950 0.008561
0.051000 0.008729
0.051050 0.008835
0.051100 0.008855
0.051150 0.008784
0.051200 0.008642
0.051250 0.008466
0.051300 0.008298
0.051350 0.008171
0.051400 0.008109
0.051450 0.008122
0.051500 0.008209
0.051550 0.008353
0.051600 0.008528
0.051650 0.008699
0.051700 0.008827
0.051750 0.008883
0.051800 0.008858
0.051850 0.008766
0.051900 0.008639
0.051950 0.008516
0.052000 0.008432
0.052050 0.008412
0.052100 0.008467
0.052150 0.008596
0.052200 0.008784
0.052250 0.008999
0.052300 0.009204
0.052350 0.009354
0.052400 0.009418
0.052450 0.009384
0.052500 0.009269
0.052550 0.009108
0.052600 0.008946
0.052650 0.008821
0.052700 0.008762
0.052750 0.008782
0.052800 0.008881
0.052850 0.009042
0.052900 0.009236
0.052950 0.009426
0.053000 0.009568
0.053050 0.009629
0.053100 0.009598
0.053150 0.009486
0.053200 0.009326
0.053250 0.009160
0.053300 0.009028
0.053350 0.008960
0.053400 0.008972
0.053450 0.009065
0.053500 0.009225
0.053550 0.009426
0.053600 0.009627
0.053650 0.009784
0.053700 0.009858
0.053750 0.009833
0.053800 0.009718
0.053850 0.009546
0.053900 0.009362
0.053950 0.009208
0.054000 0.009117
0.054050 0.009107
0.054100 0.009182
0.054150 0.009329
0.054200 0.009522
0.054250 0.009722
0.054300 0.009881
0.054350 0.009961
0.054400 0.009940
0.054450 0.009824
0.054500 0.009646
0.054550 0.009450
0.054600 0.009279
0.054650 0.009168
0.054700 0.009135
0.054750 0.009182
0.054800 0.009297
0.054850 0.009452
0.054900 0.009608
0.054950 0.009718
0.055000 0.009746
0.055050 0.009675
0.055100 0.009516
0.055150 0.009300
