# Spinless fermions Hamiltonian with random disorder and nearest neighbour interactions
# L=20 (size), J=0.5 (hoping amplitude), V=0.5 (interaction), W/J=6 (disorder strength), N=200 (disorder realizations), T=500 (number of trajectories)
# Evolution of Imbalance in time (fTWA method)
# time t, Imbalance I

   0.00000000000000000   1.00000000000000000
   0.10000000000000088   0.99041324818009957
   0.20000000000000176   0.96280421508917724
   0.29999999999999993   0.91954947269856646
   0.40000000000000352   0.86418844298096675
   0.50000000000000000   0.80089303567137904
   0.59999999999999987   0.73388835604960490
   0.69999999999999352   0.66693763130106387
   0.80000000000000704   0.60298042055481726
   0.89999999999999247   0.54396972275555355
   0.99999999999999989   0.49090405086279243
   1.10000000000001030   0.44400875191031569
   1.19999999999999973   0.40299664635396121
   1.29999999999999671   0.36733488677598530
   1.39999999999998703   0.33645999281434918
   1.50000000000000022   0.30990917523381928
   1.60000000000001408   0.28736445193997490
   1.70000000000001328   0.26862872085243777
   1.79999999999998495   0.25356500826220851
   1.89999999999998459   0.24203082823579575
   2.00000000000000044   0.23383163197451298
   2.10000000000001341   0.22870495334792051
   2.20000000000002061   0.22633427061446643
   2.29999999999997851   0.22638211038572206
   2.39999999999999947   0.22852757126710871
   2.50000000000000044   0.23249467672588459
   2.59999999999999343   0.23806345776354007
   2.70000000000002505   0.24506280105153544
   2.79999999999997451   0.25335020358526467
   2.90000000000001545   0.26278698141961687
   3.00000000000000044   0.27321772552625040
   3.09999999999997966   0.28446033995680298
   3.20000000000002816   0.29630885841550997
   3.29999999999997140   0.30854686618488553
   3.40000000000002656   0.32096626472728551
   3.50000000000000044   0.33338527980241162
   3.59999999999997033   0.34566095405828401
   3.70000000000003038   0.35769385246226237
   3.79999999999996918   0.36942509722026839
   3.90000000000003499   0.38082742405759562
   4.00000000000000089   0.39189272147268100
   4.09999999999996323   0.40261876480848646
   4.20000000000002682   0.41299773606335299
   4.29999999999997851   0.42300863102462105
   4.40000000000004121   0.43261482686637753
   4.50000000000000000   0.44176701276241254
   4.59999999999995701   0.45041048647846438
   4.70000000000000462   0.45849463061989842
   4.79999999999999893   0.46598151023063367
   4.90000000000004654   0.47285046939855574
   4.99999999999999911   0.47909680535529814
   5.09999999999995168   0.48472489225215093
   5.19999999999998685   0.48973843376558762
   5.30000000000001670   0.49413154330187831
   5.40000000000005009   0.49788369927405923
   5.49999999999999911   0.50095999518669299
   5.59999999999994813   0.50331644024576838
   5.69999999999997176   0.50490879233238684
   5.80000000000002913   0.50570259795853312
   5.90000000000005365   0.50568177238742351
   5.99999999999999911   0.50485324048378433
   6.09999999999994458   0.50324597510101154
   6.19999999999995932   0.50090427796804760
   6.30000000000004157   0.49787705769400403
   6.40000000000005631   0.49420645083159287
   6.49999999999999911   0.48991960151444508
   6.59999999999993836   0.48502652224798998
   6.69999999999994866   0.47952512943924569
   6.80000000000005222   0.47341238251264484
   6.90000000000005720   0.46669842270203643
   6.99999999999999911   0.45941925615826429
   7.09999999999993658   0.45164360012776911
   7.19999999999993889   0.44347138444829814
   7.30000000000006111   0.43502437866277793
   7.40000000000005986   0.42643204083178998
   7.49999999999999911   0.41781677907145992
   7.59999999999993392   0.40928226389141592
   7.69999999999993090   0.40090695887631922
   7.80000000000006821   0.39274355201899364
   7.90000000000006164   0.38482388139855511
   7.99999999999999911   0.37716811066315331
   8.09999999999993214   0.36979601767626114
   8.19999999999991047   0.36273747571422843
   8.30000000000007532   0.35603914862462477
   8.40000000000005365   0.34976558353732701
   8.49999999999999822   0.34399492711193225
   8.59999999999995346   0.33881133320466666
   8.69999999999990514   0.33429678214711478
   8.80000000000008065   0.33052437863217599
   8.90000000000002878   0.32755391365797720
   8.99999999999999822   0.32542941654168062
   9.09999999999997478   0.32417803012474472
   9.19999999999989981   0.32380967469317218
   9.30000000000008420   0.32431719328070363
   9.40000000000000746   0.32567673399354979
   9.49999999999999822   0.32784813674439239
   9.59999999999999432   0.33077531499697971
   9.69999999999989626   0.33438706368008936
   9.80000000000008953   0.33859905681867269
   9.89999999999998970   0.34331763470542798
   9.99999999999999822   0.34844528073440756
  10.10000000000001208   0.35388691059880878
  10.19999999999989271   0.35955580335621717
  10.30000000000009308   0.36537829216742279
  10.39999999999997193   0.37129674274714680
  10.49999999999999822   0.37727043995757564
  10.60000000000002984   0.38327390597955313
  10.69999999999988916   0.38929233015593689
  10.80000000000009663   0.39531444761887008
  10.89999999999995595   0.40132406168415541
  10.99999999999999822   0.40729198985445481
  11.10000000000004405   0.41317029748774964
  11.19999999999988560   0.41889035467065971
  11.30000000000010019   0.42436563322363408
  11.39999999999990266   0.42949922795541917
  11.49999999999999822   0.43419486222468606
  11.60000000000005826   0.43836893354654188
  11.69999999999988383   0.44196052293964955
  11.80000000000010374   0.44493663728031840
  11.89999999999989022   0.44729123433494861
  11.99999999999999822   0.44903836003451575
  12.10000000000007070   0.45020144475244278
  12.19999999999988027   0.45080198848141129
  12.30000000000010729   0.45085113723261727
  12.39999999999987956   0.45034677576519938
  12.49999999999999822   0.44927683836930343
  12.60000000000008136   0.44762731000420786
  12.69999999999987850   0.44539195460026659
  12.80000000000010907   0.44258078571389647
  12.89999999999987068   0.43922527375581066
  12.99999999999999645   0.43537936118706838
  13.10000000000009379   0.43111610733324585
  13.19999999999987494   0.42652045314308618
  13.30000000000011262   0.42167951718497321
  13.39999999999986180   0.41667283253922105
  13.49999999999999645   0.41156535886776702
  13.60000000000010445   0.40640537259556153
  13.69999999999987317   0.40122754470774935
  13.80000000000011440   0.39605959850617806
  13.89999999999985292   0.39092992601381527
  13.99999999999999645   0.38587367390060723
  14.10000000000010445   0.38093562618978238
  14.19999999999987139   0.37616922433927585
  14.30000000000011617   0.37163210055284585
  14.39999999999984581   0.36737950709053718
  14.49999999999999645   0.36345775820068987
  14.60000000000011333   0.35989987329238921
  14.69999999999986962   0.35672480183095795
  14.80000000000011795   0.35394017540919492
  14.89999999999983871   0.35154718294303877
  14.99999999999999645   0.34954557314470952
  15.10000000000012044   0.34793709587038607
  15.19999999999986784   0.34672653658177460
  15.30000000000012150   0.34592039878809461
  15.39999999999983338   0.34552399360209463
  15.49999999999999645   0.34553815709112756
  15.60000000000012932   0.34595694417247236
  15.69999999999986429   0.34676726005604036
  15.80000000000012328   0.34795048113603294
  15.89999999999982627   0.34948515408876335
  15.99999999999999645   0.35134946064434436
  16.10000000000013642   0.35352247158361694
  16.19999999999986073   0.35598387596253372
  16.30000000000012506   0.35871238525470522
  16.39999999999982094   0.36168324680216052
  16.49999999999999645   0.36486547678169401
  16.60000000000014353   0.36821968848968412
  16.69999999999988205   0.37169758042293666
  16.80000000000010729   0.37524388154805671
  16.89999999999981384   0.37880067093763037
  16.99999999999999645   0.38231289606597935
  17.10000000000015774   0.38573332269756372
  17.19999999999990692   0.38902546590111969
  17.30000000000007887   0.39216399924606710
  17.39999999999983515   0.39513303371262792
  17.49999999999999645   0.39792309068374165
  17.60000000000016129   0.40052763028249072
  17.69999999999993179   0.40293992828608455
  17.80000000000005755   0.40515102347930942
  17.89999999999983160   0.40714922867393388
  17.99999999999999645   0.40892121416401461
  18.10000000000016840   0.41045406691543529
  18.19999999999995666   0.41173736490336332
  18.30000000000003624   0.41276444283344316
  18.39999999999982450   0.41353257952279709
  18.49999999999999645   0.41404237249290821
  18.60000000000017550   0.41429669729455187
  18.69999999999997797   0.41429947095378949
  18.80000000000001847   0.41405438671896427
  18.89999999999982094   0.41356402918716872
  19.00000000000000000   0.41282996277009759
  19.10000000000017906   0.41185410772552322
  19.19999999999999574   0.41064102877311565
  19.30000000000000071   0.40920012471244699
  19.39999999999981739   0.40754656962593089
  19.50000000000000355   0.40570035779514230
  19.60000000000018616   0.40368368983420688
  19.70000000000001705   0.40151769892438677
  19.79999999999998295   0.39921978635955851
  19.89999999999981384   0.39680260179536747
  20.00000000000000355   0.39427517397040956
  20.10000000000018971   0.39164603885352095
  20.20000000000003837   0.38892757350139173
  20.29999999999996874   0.38614026672779900
  20.39999999999981029   0.38331549784548613
  20.50000000000000355   0.38049564161792626
  20.60000000000019327   0.37773102602365294
  20.70000000000005258   0.37507431398834234
  20.79999999999995453   0.37257383496070012
  20.89999999999980673   0.37026776706000936
  21.00000000000000355   0.36818066442594544
  21.10000000000021814   0.36632291915615334
  21.20000000000007034   0.36469283097523297
  21.29999999999994031   0.36328040496999869
  21.39999999999980673   0.36207183841416624
  21.50000000000000355   0.36105367241028780
  21.60000000000022169   0.36021563604816437
  21.70000000000008455   0.35955146386358594
  21.79999999999992255   0.35905761192394359
  21.89999999999980318   0.35873069772200905
  22.00000000000000355   0.35856516610118172
  22.10000000000022524   0.35855265636365241
  22.20000000000009877   0.35868370030533131
  22.29999999999990834   0.35895110373435302
  22.39999999999979963   0.35935338533848488
  22.50000000000000355   0.35989653767112728
  22.60000000000022879   0.36059314678008464
  22.70000000000019824   0.36145899908217066
  22.79999999999989413   0.36250808856689931
  22.89999999999979607   0.36374723865809938
  23.00000000000000355   0.36517162983542073
  23.10000000000023235   0.36676253966404593
  23.20000000000020535   0.36848834518871826
  23.29999999999987992   0.37030902490308593
  23.39999999999979607   0.37218313354340127
  23.50000000000001066   0.37407509410970330
  23.60000000000023590   0.37596033982996757
  23.70000000000021956   0.37782663767809460
  23.79999999999988702   0.37967146699885057
  23.89999999999979252   0.38149677806522919
  24.00000000000000711   0.38330311535346795
  24.10000000000023945   0.38508488376008065
  24.20000000000023022   0.38682792141204464
  24.29999999999987637   0.38850990110715700
  24.39999999999978897   0.39010339305636321
  24.50000000000001066   0.39158058544709512
  24.60000000000024656   0.39291792056612729
  24.70000000000024087   0.39409878990182085
  24.79999999999986571   0.39511323805057752
  24.89999999999978542   0.39595503568431262
  25.00000000000001066   0.39661769342864117
  25.10000000000024656   0.39709136390702299
  25.20000000000024798   0.39736209267811445
  25.29999999999985150   0.39741396166857096
  25.39999999999978542   0.39723368889729821
  25.50000000000001066   0.39681637366963424
  25.60000000000025011   0.39617040159692124
  25.70000000000025864   0.39531936477693003
  25.79999999999984084   0.39429955153586016
  25.90000000000006963   0.39315310738818809
  26.00000000000001066   0.39191874162837764
  26.10000000000025366   0.39062299453506877
  26.20000000000026930   0.38927505104732291
  26.29999999999983373   0.38786688613600218
  26.40000000000006253   0.38637862335835471
  26.50000000000001066   0.38478717085356406
  26.60000000000025722   0.38307526389397717
  26.70000000000027995   0.38123833157291570
  26.79999999999982307   0.37928780125091172
  26.90000000000005187   0.37725081992114773
  27.00000000000001066   0.37516721999913927
  27.10000000000025722   0.37308466884968483
  27.20000000000028706   0.37105271536438122
  27.29999999999981242   0.36911644413813538
  27.40000000000004476   0.36731085729282742
  27.50000000000002487   0.36565746082944633
  27.60000000000026077   0.36416422251799857
  27.70000000000029772   0.36282894794657727
  27.79999999999980531   0.36164475628689563
  27.90000000000004121   0.36060555418024848
  28.00000000000002487   0.35970963486285690
  28.10000000000026077   0.35896051461093142
  28.20000000000030482   0.35836527099694643
  28.29999999999979821   0.35793148679602999
  28.40000000000003411   0.35766424664348972
  28.50000000000002487   0.35756441300965991
  28.60000000000033182   0.35762871757664638
  28.70000000000031193   0.35785133276267850
  28.79999999999979110   0.35822595254536937
  28.90000000000002700   0.35874732297600537
  29.00000000000002487   0.35941161398627786
  29.10000000000033182   0.36021566494795898
  29.20000000000031903   0.36115554582099674
  29.29999999999978044   0.36222491261295586
  29.40000000000001990   0.36341347600909218
  29.50000000000002487   0.36470582792927042
  29.60000000000033182   0.36608091219975702
  29.70000000000032969   0.36751245651731429
  29.79999999999976978   0.36897055854434369
  29.90000000000001634   0.37042432980052498
  30.00000000000002487   0.37184515263508461
  30.10000000000033182   0.37320987368506825
  30.20000000000035101   0.37450323824321174
  30.29999999999976268   0.37571897738374410
  30.40000000000001279   0.37685909971592979
  30.50000000000002487   0.37793124533670158
  30.60000000000033182   0.37894458396253983
  30.70000000000035811   0.37990550310179261
  30.79999999999975202   0.38081462957289192
  30.90000000000000568   0.38166611534184497
  31.00000000000002842   0.38244888039331421
  31.10000000000033538   0.38314857732404006
  31.20000000000036522   0.38374911891854774
  31.29999999999974492   0.38423349749257057
  31.40000000000000213   0.38458446505845034
  31.50000000000002842   0.38478574395803500
  31.60000000000033538   0.38482388738853684
  31.70000000000036877   0.38469036260753664
  31.79999999999974492   0.38438339363854945
  31.89999999999999503   0.38390938152881998
  32.00000000000002842   0.38328375662391900
  32.10000000000033538   0.38253072847628916
  32.20000000000037232   0.38168113334371151
  32.30000000000063665   0.38076803876380533
  32.39999999999999147   0.37982088984662782
  32.50000000000002842   0.37885995245088189
  32.60000000000033538   0.37789289003167048
  32.70000000000037943   0.37691453665653218
  32.80000000000064375   0.37590993831075664
  32.89999999999999147   0.37486000827972704
  33.00000000000002842   0.37374856945947499
  33.10000000000032117   0.37256895842551141
  33.20000000000038654   0.37132805220984727
  33.30000000000062244   0.37004611368574125
  33.40000000000001279   0.36875235361950914
  33.50000000000002842   0.36747786963803092
  33.60000000000029985   0.36624860535052056
  33.70000000000038654   0.36508064426052284
  33.80000000000059401   0.36397890152362977
  33.90000000000004121   0.36293895825277972
  34.00000000000002842   0.36195100860793711
  34.10000000000027143   0.36100472920662363
  34.20000000000040075   0.36009405319558313
  34.30000000000057270   0.35922097156292038
  34.40000000000006963   0.35839750328425685
  34.50000000000002842   0.35764513961564526
  34.60000000000025011   0.35699165457568782
  34.70000000000040075   0.35646604494192025
  34.80000000000055849   0.35609304562168664
  34.90000000000009095   0.35588878040780964
  35.00000000000002842   0.35585860940883274
  35.10000000000022169   0.35599739834401439
  35.20000000000040785   0.35629168275177292
  35.30000000000053717   0.35672281342653295
  35.40000000000011227   0.35727014134445406
  35.50000000000007816   0.35791349207005707
  35.60000000000020037   0.35863456416855594
  35.70000000000040785   0.35941741784430897
  35.80000000000052296   0.36024866065665817
  35.90000000000012648   0.36111792593397529
  36.00000000000007816   0.36201871842098138
  36.10000000000017195   0.36294903084006230
  36.20000000000041496   0.36391087977310721
  36.30000000000050875   0.36490832265199130
  36.40000000000014779   0.36594432288783935
  36.50000000000007816   0.36701742973210832
  36.60000000000016485   0.36811925314268729
  36.70000000000042206   0.36923326688262398
  36.80000000000049454   0.37033503343590674
  36.90000000000016200   0.37139378251078886
  37.00000000000007816   0.37237530058161844
  37.10000000000014353   0.37324598899850059
  37.20000000000042206   0.37397759646178985
  37.30000000000048033   0.37455174113107559
  37.40000000000018332   0.37496318316658156
  37.50000000000007816   0.37522095770748159
  37.60000000000012221   0.37534682619775828
  37.70000000000042917   0.37537104347554540
  37.80000000000046612   0.37532616897429710
  37.90000000000020464   0.37524034035540327
  38.00000000000007816   0.37513167860248409
  38.10000000000010090   0.37500513415242742
  38.20000000000062812   0.37485233156394110
  38.30000000000044480   0.37465428208468543
  38.40000000000021885   0.37438639395479084
  38.50000000000007816   0.37402483048019569
  38.60000000000007958   0.37355272898531305
  38.70000000000063523   0.37296441177012413
  38.80000000000043059   0.37226611455375680
  38.90000000000023306   0.37147312081771505
  39.00000000000007816   0.37060482075653262
  39.10000000000006537   0.36967998946282576
  39.20000000000063523   0.36871392513143464
  39.30000000000041638   0.36771761841480910
  39.40000000000024727   0.36669807083103789
  39.50000000000007816   0.36565897428487709
  39.60000000000004405   0.36460172077952913
  39.70000000000063523   0.36352708461108363
  39.80000000000040217   0.36243749443712842
  39.90000000000026148   0.36133915388007276
  40.00000000000007816   0.36024317330089262
  40.10000000000002274   0.35916550325765628
  40.20000000000063523   0.35812619319861944
  40.30000000000040217   0.35714858273949140
  40.40000000000027569   0.35625834694370440
  40.50000000000007816   0.35548162910888403
  40.60000000000000853   0.35484171391317820
  40.70000000000063523   0.35435481628572030
  40.80000000000038796   0.35402663247344129
  40.90000000000028990   0.35385131085217608
  41.00000000000007105   0.35381336888776865
  41.09999999999999432   0.35389166140766504
  41.20000000000063523   0.35406378865118981
  41.30000000000037375   0.35430964146542615
  41.40000000000034674   0.35461362385521977
  41.50000000000007105   0.35496574701698624
  41.59999999999997300   0.35536186674673054
  41.70000000000064233   0.35580299345751648
  41.80000000000035953   0.35629335341406781
  41.90000000000036806   0.35683720141249187
  42.00000000000007105   0.35743518065611263
  42.09999999999995879   0.35808166152529608
  42.20000000000064233   0.35876437184918253
  42.30000000000035243   0.35946672233316723
  42.40000000000038227   0.36017200847038722
  42.50000000000007105   0.36086778525885582
  42.59999999999994458   0.36154866777186695
