# Spinless fermions Hamiltonian with random disorder and nearest neighbour interactions
# L=20 (size), J=0.5 (hoping amplitude), V=0.5 (interaction), W/J=2 (disorder strength), N=200 (disorder realizations)
# Evolution of Imbalance in time (Lanczos method)
# time t, Imbalance I

   0.00000000000000000   1.00000000000000000
   0.10000000000000001   0.99052989426650062
   0.20000000000000001   0.96247590989799969
   0.29999999999999999   0.91688924424700025
   0.40000000000000002   0.85546369801300026
   0.50000000000000000   0.78045228158900015
   0.59999999999999998   0.69455791624250041
   0.69999999999999996   0.60080492051300005
   0.80000000000000004   0.50239890087150019
   0.90000000000000002   0.40258301959149967
   1.00000000000000000   0.30449841244249998
   1.10000000000000009   0.21105584103050012
   1.19999999999999996   0.12482458995200002
   1.30000000000000004   0.04794327524749999
   1.39999999999999991  -0.01794426541900000
   1.50000000000000000  -0.07172637069149995
   1.60000000000000009  -0.11283410624250000
   1.69999999999999996  -0.14122621158650001
   1.80000000000000004  -0.15735089422849999
   1.89999999999999991  -0.16208792092800003
   2.00000000000000000  -0.15667521513799995
   2.10000000000000009  -0.14262467106000001
   2.20000000000000018  -0.12163212598699995
   2.29999999999999982  -0.09548639397200001
   2.39999999999999991  -0.06598196556550001
   2.50000000000000000  -0.03483944611699999
   2.60000000000000009  -0.00363707766150000
   2.70000000000000018   0.02624418145100000
   2.79999999999999982   0.05366049798250001
   2.89999999999999991   0.07772937455450001
   3.00000000000000000   0.09783859947199995
   3.10000000000000009   0.11364112169300004
   3.20000000000000018   0.12503770147500007
   3.29999999999999982   0.13214967030750002
   3.39999999999999991   0.13528441981950004
   3.50000000000000000   0.13489633180200003
   3.60000000000000009   0.13154577554049998
   3.70000000000000018   0.12585856265349990
   3.79999999999999982   0.11848789819100002
   3.89999999999999991   0.11008043881849998
   4.00000000000000000   0.10124760283600001
   4.09999999999999964   0.09254280888900000
   4.20000000000000018   0.08444488069899997
   4.29999999999999982   0.07734746852350000
   4.40000000000000036   0.07155402180700002
   4.50000000000000000   0.06727761103349997
   4.59999999999999964   0.06464474422150002
   4.70000000000000018   0.06370225202349998
   4.79999999999999982   0.06442631683949998
   4.90000000000000036   0.06673278509199999
   5.00000000000000000   0.07048801208849999
   5.09999999999999964   0.07551963033350002
   5.20000000000000018   0.08162678820399996
   5.29999999999999982   0.08858956050000000
   5.40000000000000036   0.09617737290449994
   5.50000000000000000   0.10415639847549996
   5.59999999999999964   0.11229596932049998
   5.70000000000000018   0.12037409892850003
   5.79999999999999982   0.12818223135099996
   5.90000000000000036   0.13552932726049993
   6.00000000000000000   0.14224537130299997
   6.09999999999999964   0.14818434752849993
   6.20000000000000018   0.15322668871300005
   6.29999999999999982   0.15728116799399994
   6.40000000000000036   0.16028617337799994
   6.50000000000000000   0.16221029117350005
   6.59999999999999964   0.16305212509549996
   6.70000000000000018   0.16283929356050003
   6.79999999999999982   0.16162657745900003
   6.90000000000000036   0.15949323070150001
   7.00000000000000000   0.15653951284149994
   7.09999999999999964   0.15288255230700012
   7.20000000000000018   0.14865169508099993
   7.29999999999999982   0.14398353287750001
   7.40000000000000036   0.13901683228299999
   7.50000000000000000   0.13388759891499996
   7.59999999999999964   0.12872450663250004
   7.70000000000000018   0.12364490068200001
   7.79999999999999982   0.11875154680149996
   7.90000000000000036   0.11413024946450002
   8.00000000000000000   0.10984840475050001
   8.09999999999999964   0.10595449362200006
   8.19999999999999929   0.10247846367199999
   8.30000000000000071   0.09943289776600008
   8.40000000000000036   0.09681482953999999
   8.50000000000000000   0.09460804155950001
   8.59999999999999964   0.09278567209499998
   8.69999999999999929   0.09131296076099997
   8.80000000000000071   0.09014997859500001
   8.90000000000000036   0.08925421206100002
   9.00000000000000000   0.08858289871449999
   9.09999999999999964   0.08809504190100000
   9.19999999999999929   0.08775305974749999
   9.30000000000000071   0.08752404817149996
   9.40000000000000036   0.08738065750400002
   9.50000000000000000   0.08730159740550000
   9.59999999999999964   0.08727179612050001
   9.69999999999999929   0.08728224803599995
   9.80000000000000071   0.08732958933650002
   9.90000000000000036   0.08741544613700004
  10.00000000000000000   0.08754560301199998
  10.09999999999999964   0.08772904258050004
  10.19999999999999929   0.08797690855500000
  10.30000000000000071   0.08830144462199996
  10.40000000000000036   0.08871495971450001
  10.50000000000000000   0.08922886608250001
  10.59999999999999964   0.08985282976649996
  10.69999999999999929   0.09059406475649996
  10.80000000000000071   0.09145679170100005
  10.90000000000000036   0.09244187171349999
  11.00000000000000000   0.09354661515450007
  11.09999999999999964   0.09476475641900006
  11.19999999999999929   0.09608657806649995
  11.30000000000000071   0.09749916289999996
  11.40000000000000036   0.09898674941450011
  11.50000000000000000   0.10053116530650000
  11.59999999999999964   0.10211231456499997
  11.69999999999999929   0.10370869544250003
  11.80000000000000071   0.10529792894350003
  11.90000000000000036   0.10685728034450005
  12.00000000000000000   0.10836415870100000
  12.09999999999999964   0.10979658178800009
  12.19999999999999929   0.11113359659550009
  12.30000000000000071   0.11235564750750003
  12.40000000000000036   0.11344488765150000
  12.50000000000000000   0.11438543085650008
  12.59999999999999964   0.11516354533499992
  12.69999999999999929   0.11576779271400001
  12.80000000000000071   0.11618911854949994
  12.90000000000000036   0.11642090252899998
  13.00000000000000000   0.11645897728250006
  13.09999999999999964   0.11630162462350001
  13.19999999999999929   0.11594955672850003
  13.30000000000000071   0.11540588728000004
  13.40000000000000036   0.11467609489749993
  13.50000000000000000   0.11376797791499998
  13.59999999999999964   0.11269159692699995
  13.69999999999999929   0.11145919942750006
  13.80000000000000071   0.11008511993199996
  13.90000000000000036   0.10858564899700003
  14.00000000000000000   0.10697886567749997
  14.09999999999999964   0.10528442963300004
  14.19999999999999929   0.10352333162199999
  14.30000000000000071   0.10171760322250004
  14.40000000000000036   0.09988998956299996
  14.50000000000000000   0.09806359086999999
  14.59999999999999964   0.09626148121650005
  14.69999999999999929   0.09450631480399999
  14.80000000000000071   0.09281993200300005
  14.90000000000000036   0.09122297850399999
  15.00000000000000000   0.08973455153900003
  15.09999999999999964   0.08837188606700005
  15.19999999999999929   0.08715009203400001
  15.30000000000000071   0.08608195002049999
  15.40000000000000036   0.08517776826649999
  15.50000000000000000   0.08444529882800003
  15.59999999999999964   0.08388970563899999
  15.69999999999999929   0.08351357372350002
  15.80000000000000071   0.08331694635900004
  15.90000000000000036   0.08329737732050005
  16.00000000000000000   0.08344998786300001
  16.10000000000000142   0.08376752227749995
  16.19999999999999929   0.08424040179899997
  16.30000000000000071   0.08485678280299998
  16.39999999999999858   0.08560263056050001
  16.50000000000000000   0.08646182404899996
  16.60000000000000142   0.08741630889700000
  16.69999999999999929   0.08844631468599996
  16.80000000000000071   0.08953064911099999
  16.89999999999999858   0.09064707560000000
  17.00000000000000000   0.09177277297950004
  17.10000000000000142   0.09288486729750002
  17.19999999999999929   0.09396101749300004
  17.30000000000000071   0.09498002907400002
  17.39999999999999858   0.09592246511099997
  17.50000000000000000   0.09677122129050005
  17.60000000000000142   0.09751203240150000
  17.69999999999999929   0.09813388130000006
  17.80000000000000071   0.09862928727950006
  17.89999999999999858   0.09899445854000005
  18.00000000000000000   0.09922930212700008
  18.10000000000000142   0.09933729291500006
  18.19999999999999929   0.09932521094100000
  18.30000000000000071   0.09920276266099996
  18.39999999999999858   0.09898210621050012
  18.50000000000000000   0.09867730388849996
  18.60000000000000142   0.09830372669949997
  18.69999999999999929   0.09787743626300006
  18.80000000000000071   0.09741456897350000
  18.89999999999999858   0.09693074632449999
  19.00000000000000000   0.09644053318050001
  19.10000000000000142   0.09595696379450008
  19.19999999999999929   0.09549115159549997
  19.30000000000000071   0.09505199542300000
  19.39999999999999858   0.09464598992199996
  19.50000000000000000   0.09427714333699999
  19.60000000000000142   0.09394700069899997
  19.69999999999999929   0.09365476631049996
  19.80000000000000071   0.09339751531250001
  19.89999999999999858   0.09317048189200001
  20.00000000000000000   0.09296740964950001
  20.10000000000000142   0.09278094941949994
  20.19999999999999929   0.09260308971899994
  20.30000000000000071   0.09242560535999997
  20.39999999999999858   0.09224051007600005
  20.50000000000000000   0.09204049893599996
  20.60000000000000142   0.09181936553049999
  20.69999999999999929   0.09157237838100001
  20.80000000000000071   0.09129660008250000
  20.89999999999999858   0.09099113247249999
  21.00000000000000000   0.09065727202300000
  21.10000000000000142   0.09029856160450002
  21.19999999999999929   0.08992072860900001
  21.30000000000000071   0.08953150432500001
  21.39999999999999858   0.08914032591800000
  21.50000000000000000   0.08875792929599997
  21.60000000000000142   0.08839584853249996
  21.69999999999999929   0.08806584447250000
  21.80000000000000071   0.08777929119599999
  21.89999999999999858   0.08754655367650006
  22.00000000000000000   0.08737639284000003
  22.10000000000000142   0.08727543450300004
  22.19999999999999929   0.08724773671150005
  22.30000000000000071   0.08729448519849999
  22.39999999999999858   0.08741383949299995
  22.50000000000000000   0.08760094280100002
  22.60000000000000142   0.08784809801700001
  22.69999999999999929   0.08814510097800002
  22.80000000000000071   0.08847971090100007
  22.89999999999999858   0.08883822871399999
  23.00000000000000000   0.08920614642699999
  23.10000000000000142   0.08956882665100001
  23.19999999999999929   0.08991217006650000
  23.30000000000000071   0.09022323101400001
  23.39999999999999858   0.09049074658750002
  23.50000000000000000   0.09070555211549998
  23.60000000000000142   0.09086086540549999
  23.69999999999999929   0.09095243204450004
  23.80000000000000071   0.09097853419750003
  23.89999999999999858   0.09093987448000003
  24.00000000000000000   0.09083935393249989
  24.10000000000000142   0.09068176841800003
  24.19999999999999929   0.09047345075499999
  24.30000000000000071   0.09022188612299996
  24.39999999999999858   0.08993532613200003
  24.50000000000000000   0.08962242338049999
  24.60000000000000142   0.08929190248250000
  24.69999999999999929   0.08895227834599996
  24.80000000000000071   0.08861162624599998
  24.89999999999999858   0.08827740351050002
  25.00000000000000000   0.08795631875349993
  25.10000000000000142   0.08765424214950002
  25.19999999999999929   0.08737614900300002
  25.30000000000000071   0.08712608909200004
  25.39999999999999858   0.08690717513450003
  25.50000000000000000   0.08672158474349999
  25.60000000000000142   0.08657057221650000
  25.69999999999999929   0.08645448745449996
  25.80000000000000071   0.08637280093700000
  25.89999999999999858   0.08632413450400003
  26.00000000000000000   0.08630629870300002
  26.10000000000000142   0.08631633858350003
  26.19999999999999929   0.08635059014900003
  26.30000000000000071   0.08640475087100002
  26.39999999999999858   0.08647396778449996
  26.50000000000000000   0.08655294658899998
  26.60000000000000142   0.08663608463050000
  26.69999999999999929   0.08671762873650002
  26.80000000000000071   0.08679185659350004
  26.89999999999999858   0.08685327688299997
  27.00000000000000000   0.08689683982900000
  27.10000000000000142   0.08691814616199998
  27.19999999999999929   0.08691363950700000
  27.30000000000000071   0.08688076586050002
  27.39999999999999858   0.08681808400699995
  27.50000000000000000   0.08672531362349996
  27.60000000000000142   0.08660331235449997
  27.69999999999999929   0.08645398028050001
  27.80000000000000071   0.08628009760999994
  27.89999999999999858   0.08608510946600000
  28.00000000000000000   0.08587287842999997
  28.10000000000000142   0.08564742977300002
  28.19999999999999929   0.08541271608600001
  28.30000000000000071   0.08517242586199998
  28.39999999999999858   0.08492985551149995
  28.50000000000000000   0.08468785619249999
  28.60000000000000142   0.08444885747950000
  28.69999999999999929   0.08421495980549999
  28.80000000000000071   0.08398807882100000
  28.89999999999999858   0.08377011796400000
  29.00000000000000000   0.08356314189999998
  29.10000000000000142   0.08336952294849999
  29.19999999999999929   0.08319203563799997
  29.30000000000000071   0.08303388017549999
  29.39999999999999858   0.08289862347500002
  29.50000000000000000   0.08279005527550004
  29.60000000000000142   0.08271196594450000
  29.69999999999999929   0.08266786103300000
  29.80000000000000071   0.08266063465550000
  29.89999999999999858   0.08269222876800003
  30.00000000000000000   0.08276330837950004
  30.10000000000000142   0.08287298300400002
  30.19999999999999929   0.08301860281849993
  30.30000000000000071   0.08319565364199999
  30.39999999999999858   0.08339776865449998
  30.50000000000000000   0.08361686682200002
  30.60000000000000142   0.08384341895950000
  30.69999999999999929   0.08406683274450000
  30.80000000000000071   0.08427593817399998
  30.89999999999999858   0.08445954649749997
  31.00000000000000000   0.08460704787750008
  31.10000000000000142   0.08470900840650003
  31.19999999999999929   0.08475772447049995
  31.30000000000000071   0.08474769371950001
  31.39999999999999858   0.08467596614100001
  31.50000000000000000   0.08454234652199996
  31.60000000000000142   0.08434943011350002
  31.69999999999999929   0.08410246575849997
  31.80000000000000071   0.08380905411049999
  31.89999999999999858   0.08347870183650004
  32.00000000000000000   0.08312226399200001
  32.10000000000000142   0.08275131564850000
  32.20000000000000284   0.08237749908100002
  32.29999999999999716   0.08201189381849992
  32.39999999999999858   0.08166445394749999
  32.50000000000000000   0.08134355027850003
  32.60000000000000142   0.08105564523499999
  32.70000000000000284   0.08080511644799994
  32.79999999999999716   0.08059423262949998
  32.89999999999999858   0.08042327269600005
  33.00000000000000000   0.08029076822400003
  33.10000000000000142   0.08019384043650002
  33.20000000000000284   0.08012859699400000
  33.29999999999999716   0.08009055099399999
  33.39999999999999858   0.08007502540800003
  33.50000000000000000   0.08007750990699999
  33.60000000000000142   0.08009394380849999
  33.70000000000000284   0.08012090769000002
  33.79999999999999716   0.08015571620949999
  33.89999999999999858   0.08019641497849996
  34.00000000000000000   0.08024169363250003
  34.10000000000000142   0.08029073462599995
  34.20000000000000284   0.08034302213449999
  34.29999999999999716   0.08039813711000000
  34.39999999999999858   0.08045556338449998
  34.50000000000000000   0.08051452562949998
  34.60000000000000142   0.08057387437750001
  34.70000000000000284   0.08063202670350000
  34.79999999999999716   0.08068696440800005
  34.89999999999999858   0.08073628588499997
  35.00000000000000000   0.08077730346450006
  35.10000000000000142   0.08080717507500003
  35.20000000000000284   0.08082305809000008
  35.29999999999999716   0.08082227277500001
  35.39999999999999858   0.08080246406200002
  35.50000000000000000   0.08076175139350003
  35.60000000000000142   0.08069885820650002
  35.70000000000000284   0.08061321440749998
  35.79999999999999716   0.08050502669799998
  35.89999999999999858   0.08037531372099997
  36.00000000000000000   0.08022590456799997
  36.10000000000000142   0.08005940105050005
  36.20000000000000284   0.07987910573749997
  36.29999999999999716   0.07968891925049994
  36.39999999999999858   0.07949321135649998
  36.50000000000000000   0.07929667099899998
  36.60000000000000142   0.07910414109750000
  36.70000000000000284   0.07892044377799999
  36.79999999999999716   0.07875020172100003
  36.89999999999999858   0.07859766137599995
  37.00000000000000000   0.07846652374949996
  37.10000000000000142   0.07835978843550001
  37.20000000000000284   0.07827961684150000
  37.29999999999999716   0.07822722049299999
  37.39999999999999858   0.07820278025800001
  37.50000000000000000   0.07820540185649998
  37.60000000000000142   0.07823311233199999
  37.70000000000000284   0.07828290097150004
  37.79999999999999716   0.07835080645250000
  37.89999999999999858   0.07843205016649998
  38.00000000000000000   0.07852121318999999
  38.10000000000000142   0.07861245165950004
  38.20000000000000284   0.07869974290300000
  38.29999999999999716   0.07877715153649999
  38.39999999999999858   0.07883910296300002
  38.50000000000000000   0.07888064953949997
  38.60000000000000142   0.07889771431400000
  38.70000000000000284   0.07888729737299999
  38.79999999999999716   0.07884763151150004
  38.89999999999999858   0.07877827678800003
  39.00000000000000000   0.07868014735450000
  39.10000000000000142   0.07855546841149998
  39.20000000000000284   0.07840766591600001
  39.29999999999999716   0.07824119619049995
  39.39999999999999858   0.07806132634850002
  39.50000000000000000   0.07787387949499998
  39.60000000000000142   0.07768496026549999
  39.70000000000000284   0.07750067664500002
  39.79999999999999716   0.07732687340050001
  39.89999999999999858   0.07716889055500001
  40.00000000000000000   0.07703135753199998
  40.10000000000000142   0.07691803058199997
  40.20000000000000284   0.07683167715249997
  40.29999999999999716   0.07677400754600000
  40.39999999999999858   0.07674565064549997
  40.50000000000000000   0.07674616806350000
  40.60000000000000142   0.07677409912300001
  40.70000000000000284   0.07682702872699994
  40.79999999999999716   0.07690167060750000
  40.89999999999999858   0.07699396033999993
  41.00000000000000000   0.07709915498600002
  41.10000000000000142   0.07721193896099995
  41.20000000000000284   0.07732653847349999
  41.29999999999999716   0.07743684844899998
  41.39999999999999858   0.07753657641500000
  41.50000000000000000   0.07761940692649999
  41.60000000000000142   0.07767918759150000
  41.70000000000000284   0.07771013465450000
  41.79999999999999716   0.07770705197900001
  41.89999999999999858   0.07766555392250001
  42.00000000000000000   0.07758227968100001
  42.10000000000000142   0.07745508510300006
  42.20000000000000284   0.07728319816100000
  42.29999999999999716   0.07706732563249996
  42.39999999999999858   0.07680970147000005
  42.50000000000000000   0.07651407092349999
  42.60000000000000142   0.07618560873650000
  42.70000000000000284   0.07583077374800000
