# Spinless fermions Hamiltonian with random disorder and nearest neighbour interactions
# L=20 (size), J=0.5 (hoping amplitude), V=0.5 (interaction), W/J=6 (disorder strength), N=200 (disorder realizations)
# Evolution of Imbalance in time (Lanczos method)
# time t, Imbalance I

   0.00000000000000000   1.00000000000000000
   0.10000000000000001   0.99057034324099957
   0.20000000000000001   0.96310736922349893
   0.29999999999999999   0.91995793347549992
   0.40000000000000002   0.86462472700699999
   0.50000000000000000   0.80124504812200015
   0.59999999999999998   0.73402034288899998
   0.69999999999999996   0.66670620985350026
   0.80000000000000004   0.60224978953949992
   0.90000000000000002   0.54262092470299994
   1.00000000000000000   0.48883679595500013
   1.10000000000000009   0.44113887546399988
   1.19999999999999996   0.39925517695949980
   1.30000000000000004   0.36267427769700006
   1.39999999999999991   0.33086943109750000
   1.50000000000000000   0.30343572172299998
   1.60000000000000009   0.28013248481099995
   1.69999999999999996   0.26084883075150000
   1.80000000000000004   0.24552594369400002
   1.89999999999999991   0.23407333458750010
   2.00000000000000000   0.22630874936349993
   2.10000000000000009   0.22193719715500004
   2.20000000000000018   0.22056900604000010
   2.29999999999999982   0.22176473500100005
   2.39999999999999991   0.22508899732499996
   2.50000000000000000   0.23015614344549998
   2.60000000000000009   0.23665658277150001
   2.70000000000000018   0.24436044672750001
   2.79999999999999982   0.25310246492599997
   2.89999999999999991   0.26275638484650005
   3.00000000000000000   0.27320833572949998
   3.10000000000000009   0.28433671647600006
   3.20000000000000018   0.29600269162400006
   3.29999999999999982   0.30805158867300003
   3.39999999999999991   0.32032250139099999
   3.50000000000000000   0.33266180043949994
   3.60000000000000009   0.34493609852249996
   3.70000000000000018   0.35704119020050018
   3.79999999999999982   0.36890508180899972
   3.89999999999999991   0.38048493811000000
   4.00000000000000000   0.39175920902250022
   4.09999999999999964   0.40271713320100005
   4.20000000000000018   0.41334815248699996
   4.29999999999999982   0.42363352992799996
   4.40000000000000036   0.43354174248300031
   4.50000000000000000   0.44302819807499999
   4.59999999999999964   0.45203875012999972
   4.70000000000000018   0.46051562010200014
   4.79999999999999982   0.46840390888349992
   4.90000000000000036   0.47565698102849990
   5.00000000000000000   0.48223958108650011
   5.09999999999999964   0.48812838705999978
   5.20000000000000018   0.49331053976999967
   5.29999999999999982   0.49778123809199998
   5.40000000000000036   0.50154158125499992
   5.50000000000000000   0.50459745529049982
   5.59999999999999964   0.50695956378600004
   5.70000000000000018   0.50864399361300006
   5.79999999999999982   0.50967231182850004
   5.90000000000000036   0.51007032048750001
   6.00000000000000000   0.50986522405550028
   6.09999999999999964   0.50908181559599985
   6.20000000000000018   0.50773895754749998
   6.29999999999999982   0.50584777949900017
   6.40000000000000036   0.50341253547049980
   6.50000000000000000   0.50043413819100013
   6.59999999999999964   0.49691539871500018
   6.70000000000000018   0.49286634327800000
   6.79999999999999982   0.48830790099499999
   6.90000000000000036   0.48327276432499999
   7.00000000000000000   0.47780311521099966
   7.09999999999999964   0.47194586904349983
   7.20000000000000018   0.46574681111549998
   7.29999999999999982   0.45924528878999987
   7.40000000000000036   0.45247092855600007
   7.50000000000000000   0.44544326596300010
   7.59999999999999964   0.43817440026400034
   7.70000000000000018   0.43067403792650011
   7.79999999999999982   0.42295576399449980
   7.90000000000000036   0.41504319624500013
   8.00000000000000000   0.40697485412700002
   8.09999999999999964   0.39880703204150025
   8.19999999999999929   0.39061454318249988
   8.30000000000000071   0.38248969637550012
   8.40000000000000036   0.37454011200400023
   8.50000000000000000   0.36688590230349993
   8.59999999999999964   0.35965640674099963
   8.69999999999999929   0.35298628191750003
   8.80000000000000071   0.34701052873949989
   8.90000000000000036   0.34185814629799999
   9.00000000000000000   0.33764451280349983
   9.09999999999999964   0.33446313576700015
   9.19999999999999929   0.33237785444650014
   9.30000000000000071   0.33141675105299989
   9.40000000000000036   0.33156889724450012
   9.50000000000000000   0.33278469991650000
   9.59999999999999964   0.33498011540649997
   9.69999999999999929   0.33804444484399981
   9.80000000000000071   0.34185084747049976
   9.90000000000000036   0.34626818036899998
  10.00000000000000000   0.35117240887800022
  10.09999999999999964   0.35645577269150003
  10.19999999999999929   0.36203222028049981
  10.30000000000000071   0.36783830159999986
  10.40000000000000036   0.37382958283699985
  10.50000000000000000   0.37997351881849978
  10.59999999999999964   0.38624041730149983
  10.69999999999999929   0.39259453725450011
  10.80000000000000071   0.39898739889800017
  10.90000000000000036   0.40535498277000004
  11.00000000000000000   0.41161965255450000
  11.09999999999999964   0.41769647424449990
  11.19999999999999929   0.42350241052149995
  11.30000000000000071   0.42896602697350000
  11.40000000000000036   0.43403517142949971
  11.50000000000000000   0.43868066205900036
  11.59999999999999964   0.44289514486050024
  11.69999999999999929   0.44668756948349947
  11.80000000000000071   0.45007479204200002
  11.90000000000000036   0.45307239305300001
  12.00000000000000000   0.45568683635050000
  12.09999999999999964   0.45791066972399996
  12.19999999999999929   0.45972172330399969
  12.30000000000000071   0.46108635790699992
  12.40000000000000036   0.46196591938750020
  12.50000000000000000   0.46232484190549966
  12.59999999999999964   0.46213847193250002
  12.69999999999999929   0.46139875489450005
  12.80000000000000071   0.46011642934150015
  12.90000000000000036   0.45831918690799989
  13.00000000000000000   0.45604618331799995
  13.09999999999999964   0.45334012191999984
  13.19999999999999929   0.45023871775799973
  13.30000000000000071   0.44676758280850010
  13.40000000000000036   0.44293639537949986
  13.50000000000000000   0.43873961463249983
  13.59999999999999964   0.43416203901599998
  13.69999999999999929   0.42918835915399994
  13.80000000000000071   0.42381480149449968
  13.90000000000000036   0.41806030783199988
  14.00000000000000000   0.41197466759649992
  14.09999999999999964   0.40564164828950022
  14.19999999999999929   0.39917628690299994
  14.30000000000000071   0.39271680382600005
  14.40000000000000036   0.38641274937000003
  14.50000000000000000   0.38041172568550025
  14.59999999999999964   0.37484719419549983
  14.69999999999999929   0.36982946031350006
  14.80000000000000071   0.36544103023800006
  14.90000000000000036   0.36173638772099992
  15.00000000000000000   0.35874516031350007
  15.09999999999999964   0.35647695466399987
  15.19999999999999929   0.35492604394499966
  15.30000000000000071   0.35407457821700006
  15.40000000000000036   0.35389383777550032
  15.50000000000000000   0.35434391813950000
  15.59999999999999964   0.35537282338550008
  15.69999999999999929   0.35691609934099994
  15.80000000000000071   0.35889789026950014
  15.90000000000000036   0.36123380015850004
  16.00000000000000000   0.36383537066400001
  16.10000000000000142   0.36661551647500018
  16.19999999999999929   0.36949400580549990
  16.30000000000000071   0.37240209691900006
  16.39999999999999858   0.37528571856800014
  16.50000000000000000   0.37810699351200000
  16.60000000000000142   0.38084426997599985
  16.69999999999999929   0.38349098703850015
  16.80000000000000071   0.38605361807049993
  16.89999999999999858   0.38854872566350002
  17.00000000000000000   0.39099902724049995
  17.10000000000000142   0.39342847939350023
  17.19999999999999929   0.39585675801050002
  17.30000000000000071   0.39829398647549996
  17.39999999999999858   0.40073689943449997
  17.50000000000000000   0.40316761219999997
  17.60000000000000142   0.40555571711300009
  17.69999999999999929   0.40786363441749984
  17.80000000000000071   0.41005422277849973
  17.89999999999999858   0.41209888200750000
  18.00000000000000000   0.41398401548400021
  18.10000000000000142   0.41571392136199997
  18.19999999999999929   0.41730895450899985
  18.30000000000000071   0.41879897532099997
  18.39999999999999858   0.42021337422600008
  18.50000000000000000   0.42156998451549987
  18.60000000000000142   0.42286568020450011
  18.69999999999999929   0.42407124785349987
  18.80000000000000071   0.42513223898149988
  18.89999999999999858   0.42597613534299988
  19.00000000000000000   0.42652460544550036
  19.10000000000000142   0.42670828234150010
  19.19999999999999929   0.42648072671250004
  19.30000000000000071   0.42582831139049993
  19.39999999999999858   0.42477370733499981
  19.50000000000000000   0.42337222820899972
  19.60000000000000142   0.42170204617250012
  19.69999999999999929   0.41985070815850001
  19.80000000000000071   0.41790107001499976
  19.89999999999999858   0.41591960013849977
  20.00000000000000000   0.41394914316600018
  20.10000000000000142   0.41200701941400014
  20.19999999999999929   0.41008814129799942
  20.30000000000000071   0.40817192883549991
  20.39999999999999858   0.40623132091999992
  20.50000000000000000   0.40424208581350002
  20.60000000000000142   0.40219082976400017
  20.69999999999999929   0.40008046537949993
  20.80000000000000071   0.39793234042750003
  20.89999999999999858   0.39578470217350004
  21.00000000000000000   0.39368768293900025
  21.10000000000000142   0.39169554687449998
  21.19999999999999929   0.38985750286250015
  21.30000000000000071   0.38820886042449992
  21.39999999999999858   0.38676451553999996
  21.50000000000000000   0.38551652905399991
  21.60000000000000142   0.38443681292950027
  21.69999999999999929   0.38348474793499959
  21.80000000000000071   0.38261819188949997
  21.89999999999999858   0.38180520534800022
  22.00000000000000000   0.38103333299849973
  22.10000000000000142   0.38031369069199988
  22.19999999999999929   0.37967840134350012
  22.30000000000000071   0.37917177985399997
  22.39999999999999858   0.37883754695350030
  22.50000000000000000   0.37870566385849985
  22.60000000000000142   0.37878267367799962
  22.69999999999999929   0.37904855747849991
  22.80000000000000071   0.37946127119750017
  22.89999999999999858   0.37996785356949991
  23.00000000000000000   0.38051898898649972
  23.10000000000000142   0.38108283190700021
  23.19999999999999929   0.38165413058200015
  23.30000000000000071   0.38225616604250001
  23.39999999999999858   0.38293523912200006
  23.50000000000000000   0.38374962069900015
  23.60000000000000142   0.38475629428149988
  23.69999999999999929   0.38599906268600009
  23.80000000000000071   0.38750072617299997
  23.89999999999999858   0.38926051845799997
  24.00000000000000000   0.39125640928650002
  24.10000000000000142   0.39345073836399991
  24.19999999999999929   0.39579716498000012
  24.30000000000000071   0.39824706744600019
  24.39999999999999858   0.40075410262349997
  24.50000000000000000   0.40327638077500017
  24.60000000000000142   0.40577638688149958
  24.69999999999999929   0.40821922471500005
  24.80000000000000071   0.41056991726600001
  24.89999999999999858   0.41279043479599975
  25.00000000000000000   0.41483699587800010
  25.10000000000000142   0.41665815277349999
  25.19999999999999929   0.41819427617499982
  25.30000000000000071   0.41937918027400001
  25.39999999999999858   0.42014455491049996
  25.50000000000000000   0.42042740622999991
  25.60000000000000142   0.42017983998850039
  25.69999999999999929   0.41937948170000006
  25.80000000000000071   0.41803802234099968
  25.89999999999999858   0.41620522436249985
  26.00000000000000000   0.41396645372199986
  26.10000000000000142   0.41143333527050019
  26.19999999999999929   0.40872904518799985
  26.30000000000000071   0.40597142984399992
  26.39999999999999858   0.40325796441700007
  26.50000000000000000   0.40065617714749996
  26.60000000000000142   0.39820162173649992
  26.69999999999999929   0.39590325332150000
  26.80000000000000071   0.39375388801950012
  26.89999999999999858   0.39174203474850006
  27.00000000000000000   0.38986125010800010
  27.10000000000000142   0.38811431714400008
  27.19999999999999929   0.38651157657999979
  27.30000000000000071   0.38506492163499995
  27.39999999999999858   0.38378052396249979
  27.50000000000000000   0.38265372334150011
  27.60000000000000142   0.38166855777900011
  27.69999999999999929   0.38080250127449994
  27.80000000000000071   0.38003484986399982
  27.89999999999999858   0.37935567593100006
  28.00000000000000000   0.37877193841749990
  28.10000000000000142   0.37830830772800000
  28.19999999999999929   0.37800214976099994
  28.30000000000000071   0.37789418820199999
  28.39999999999999858   0.37801785551400002
  28.50000000000000000   0.37839072282900010
  28.60000000000000142   0.37901056717050002
  28.69999999999999929   0.37985693777099994
  28.80000000000000071   0.38089717272900009
  28.89999999999999858   0.38209439526750016
  29.00000000000000000   0.38341457553700004
  29.10000000000000142   0.38483037729349995
  29.19999999999999929   0.38632090877199993
  29.30000000000000071   0.38786809188150018
  29.39999999999999858   0.38945156487700006
  29.50000000000000000   0.39104445759400014
  29.60000000000000142   0.39261195648799996
  29.69999999999999929   0.39411352786650033
  29.80000000000000071   0.39550837686200013
  29.89999999999999858   0.39676259999450009
  30.00000000000000000   0.39785587024899977
  30.10000000000000142   0.39878555114500008
  30.19999999999999929   0.39956684845849977
  30.30000000000000071   0.40022875382700007
  30.39999999999999858   0.40080675039699992
  30.50000000000000000   0.40133415464950012
  30.60000000000000142   0.40183430133149989
  30.69999999999999929   0.40231549367699976
  30.80000000000000071   0.40276988842700007
  30.89999999999999858   0.40317651243550012
  31.00000000000000000   0.40350765033800007
  31.10000000000000142   0.40373707403899994
  31.19999999999999929   0.40384812601549991
  31.30000000000000071   0.40383961671000024
  31.39999999999999858   0.40372791050049978
  31.50000000000000000   0.40354442545250002
  31.60000000000000142   0.40332889770250008
  31.69999999999999929   0.40311988285499983
  31.80000000000000071   0.40294477158399999
  31.89999999999999858   0.40281184645249996
  32.00000000000000000   0.40270651579599992
  32.10000000000000142   0.40259291023250016
  32.20000000000000284   0.40242073576550008
  32.29999999999999716   0.40213594835350031
  32.39999999999999858   0.40169278352400012
  32.50000000000000000   0.40106423725650003
  32.60000000000000142   0.40024841780949993
  32.70000000000000284   0.39926922776299995
  32.79999999999999716   0.39817131392850014
  32.89999999999999858   0.39701070523899995
  33.00000000000000000   0.39584359910649991
  33.10000000000000142   0.39471606234199980
  33.20000000000000284   0.39365693732149987
  33.29999999999999716   0.39267519280449986
  33.39999999999999858   0.39176169603649996
  33.50000000000000000   0.39089430505050005
  33.60000000000000142   0.39004458270050002
  33.70000000000000284   0.38918442885199994
  33.79999999999999716   0.38829141063799988
  33.89999999999999858   0.38735228018850010
  34.00000000000000000   0.38636479174150012
  34.10000000000000142   0.38533824118749993
  34.20000000000000284   0.38429310293349994
  34.29999999999999716   0.38325986429249992
  34.39999999999999858   0.38227688497850026
  34.50000000000000000   0.38138703983600003
  34.60000000000000142   0.38063311523499982
  34.70000000000000284   0.38005234982250025
  34.79999999999999716   0.37967095606200013
  34.89999999999999858   0.37949972646500008
  35.00000000000000000   0.37953178083999972
  35.10000000000000142   0.37974313275050020
  35.20000000000000284   0.38009615205400016
  35.29999999999999716   0.38054536019499990
  35.39999999999999858   0.38104450117750011
  35.50000000000000000   0.38155360572249991
  35.60000000000000142   0.38204483070700002
  35.70000000000000284   0.38250615064550020
  35.79999999999999716   0.38294240521449974
  35.89999999999999858   0.38337367311749998
  36.00000000000000000   0.38383137641600001
  36.10000000000000142   0.38435286063450014
  36.20000000000000284   0.38497538702800016
  36.29999999999999716   0.38573047323049997
  36.39999999999999858   0.38663933139399975
  36.50000000000000000   0.38770984834850014
  36.60000000000000142   0.38893524180849992
  36.70000000000000284   0.39029430563949974
  36.79999999999999716   0.39175305188650000
  36.89999999999999858   0.39326751933800014
  37.00000000000000000   0.39478747889399990
  37.10000000000000142   0.39626069494549954
  37.20000000000000284   0.39763732943600028
  37.29999999999999716   0.39887405387950003
  37.39999999999999858   0.39993748612249980
  37.50000000000000000   0.40080666851350005
  37.60000000000000142   0.40147440629150011
  37.70000000000000284   0.40194736616699983
  37.79999999999999716   0.40224490426750009
  37.89999999999999858   0.40239667572149995
  38.00000000000000000   0.40243918639950016
  38.10000000000000142   0.40241156773600006
  38.20000000000000284   0.40235096454349983
  38.29999999999999716   0.40228800476999976
  38.39999999999999858   0.40224286180750030
  38.50000000000000000   0.40222241850849999
  38.60000000000000142   0.40221898331849965
  38.70000000000000284   0.40221087238750003
  38.79999999999999716   0.40216494944299980
  38.89999999999999858   0.40204092626100030
  39.00000000000000000   0.40179692273850010
  39.10000000000000142   0.40139553157599989
  39.20000000000000284   0.40080948845099995
  39.29999999999999716   0.40002605159149973
  39.39999999999999858   0.39904935432899991
  39.50000000000000000   0.39790029494550000
  39.60000000000000142   0.39661393042599974
  39.70000000000000284   0.39523478520799998
  39.79999999999999716   0.39381089551649984
  39.89999999999999858   0.39238769823149988
  40.00000000000000000   0.39100295256950035
  40.10000000000000142   0.38968369035599998
  40.20000000000000284   0.38844571827350033
  40.29999999999999716   0.38729552988700006
  40.39999999999999858   0.38623381414150004
  40.50000000000000000   0.38525930852949997
  40.60000000000000142   0.38437172764350014
  40.70000000000000284   0.38357293265599990
  40.79999999999999716   0.38286623642999990
  40.89999999999999858   0.38225447567049969
  41.00000000000000000   0.38173794682399981
  41.10000000000000142   0.38131333635800019
  41.20000000000000284   0.38097438686499996
  41.29999999999999716   0.38071436764299987
  41.39999999999999858   0.38052967315799990
  41.50000000000000000   0.38042328359149979
  41.60000000000000142   0.38040659682650035
  41.70000000000000284   0.38049842109749982
  41.79999999999999716   0.38072070758650012
  41.89999999999999858   0.38109171675299996
  42.00000000000000000   0.38161838881000010
  42.10000000000000142   0.38229030181049994
  42.20000000000000284   0.38307744638550006
  42.29999999999999716   0.38393309455499997
  42.39999999999999858   0.38480157217250011
  42.50000000000000000   0.38562924195799975
  42.60000000000000142   0.38637595834000021
  42.70000000000000284   0.38702399162950007
