# Spinless fermions Hamiltonian with random disorder and nearest neighbour interactions
# L=20 (size), J=0.5 (hoping amplitude), V=0.5 (interaction), W/J=6 (disorder strength), N=200 (disorder realizations), T=500 (number of trajectories)
# Evolution of Imbalance in time (fTWA_{NONLOC} method)
# time t, Imbalance I

   0.00000000000000000   1.00000000000000000
   0.10000000000000088   0.99040967478579711
   0.20000000000000176   0.96277149840624754
   0.29999999999999993   0.91942090389167641
   0.40000000000000352   0.86387052264652309
   0.50000000000000000   0.80030891674042692
   0.59999999999999987   0.73302184227717060
   0.69999999999999352   0.66585314228569248
   0.80000000000000704   0.60181244548272406
   0.89999999999999247   0.54289095745588789
   0.99999999999999989   0.49008704931397445
   1.10000000000001030   0.44359432345873162
   1.19999999999999973   0.40307823259679132
   1.29999999999999671   0.36796256645218456
   1.39999999999998703   0.33766031467678947
   1.50000000000000022   0.31171067474352127
   1.60000000000001408   0.28981721889807177
   1.70000000000001328   0.27180997476308527
   1.79999999999998495   0.25756859652448771
   1.89999999999998459   0.24694444167792326
   2.00000000000000044   0.23971013225567128
   2.10000000000001341   0.23555019125705312
   2.20000000000002061   0.23408952127543331
   2.29999999999997851   0.23494293208289005
   2.39999999999999947   0.23776359738670672
   2.50000000000000044   0.24227238547587684
   2.59999999999999343   0.24826016211950747
   2.70000000000002505   0.25556646694097790
   2.79999999999997451   0.26404634460120646
   2.90000000000001545   0.27354008596322271
   3.00000000000000044   0.28385758539371736
   3.09999999999997966   0.29478152399773799
   3.20000000000002816   0.30608547734179442
   3.29999999999997140   0.31755830929398804
   3.40000000000002656   0.32902608644671238
   3.50000000000000044   0.34036535090875253
   3.59999999999997033   0.35150458869114887
   3.70000000000003038   0.36241382053846427
   3.79999999999996918   0.37308574016513013
   3.90000000000003499   0.38351457307612269
   4.00000000000000089   0.39367937846813211
   4.09999999999996323   0.40353669305370082
   4.20000000000002682   0.41302393195193077
   4.29999999999997851   0.42207098163732426
   4.40000000000004121   0.43061436914276763
   4.50000000000000000   0.43860779070215317
   4.59999999999995701   0.44602537775620554
   4.70000000000000462   0.45285853758352135
   4.79999999999999893   0.45911008210235471
   4.90000000000004654   0.46478857002477042
   4.99999999999999911   0.46990320627211518
   5.09999999999995168   0.47445839170628473
   5.19999999999998685   0.47844808233706082
   5.30000000000001670   0.48185213314019676
   5.40000000000005009   0.48463728979433074
   5.49999999999999911   0.48676325463483550
   5.59999999999994813   0.48819115697652299
   5.69999999999997176   0.48889066626282590
   5.80000000000002913   0.48884372690933026
   5.90000000000005365   0.48804567640208096
   5.99999999999999911   0.48650543832097992
   6.09999999999994458   0.48424493589656981
   6.19999999999995932   0.48129670404428820
   6.30000000000004157   0.47770003976069730
   6.40000000000005631   0.47349822780811018
   6.49999999999999911   0.46873930348797743
   6.59999999999993836   0.46347977419924141
   6.69999999999994866   0.45778763169947323
   6.80000000000005222   0.45174146624015449
   6.90000000000005720   0.44542600456528725
   6.99999999999999911   0.43892650159836094
   7.09999999999993658   0.43232350563857125
   7.19999999999993889   0.42568862049182821
   7.30000000000006111   0.41908251966677795
   7.40000000000005986   0.41255632169494511
   7.49999999999999911   0.40615538232723997
   7.59999999999993392   0.39992277932997455
   7.69999999999993090   0.39390036582407073
   7.80000000000006821   0.38812773245962545
   7.90000000000006164   0.38264147761994116
   7.99999999999999911   0.37747697273953229
   8.09999999999993214   0.37267248006658105
   8.19999999999991047   0.36827309952886511
   8.30000000000007532   0.36433164707885246
   8.40000000000005365   0.36090564209390669
   8.49999999999999822   0.35805222756483834
   8.59999999999995346   0.35582329029033588
   8.69999999999990514   0.35426103627164168
   8.80000000000008065   0.35339292870483491
   8.90000000000002878   0.35322624028807986
   8.99999999999999822   0.35374450729082824
   9.09999999999997478   0.35490804010821564
   9.19999999999989981   0.35665836577690935
   9.30000000000008420   0.35892442883280090
   9.40000000000000746   0.36162849590292895
   9.49999999999999822   0.36469123308911588
   9.59999999999999432   0.36803596585362536
   9.69999999999989626   0.37159115727705810
   9.80000000000008953   0.37528984293767259
   9.89999999999998970   0.37906655114478732
   9.99999999999999822   0.38285434958295228
  10.10000000000001208   0.38658448539786655
  10.19999999999989271   0.39018880549003121
  10.30000000000009308   0.39360329926202731
  10.39999999999997193   0.39677112861576469
  10.49999999999999822   0.39964454725459830
  10.60000000000002984   0.40218602143978627
  10.69999999999988916   0.40436924770433796
  10.80000000000009663   0.40618058414497965
  10.89999999999995595   0.40762062700658824
  10.99999999999999822   0.40870472887700787
  11.10000000000004405   0.40946138102609425
  11.19999999999988560   0.40992865289785341
  11.30000000000010019   0.41014962748003242
  11.39999999999990266   0.41016721655949778
  11.49999999999999822   0.41001819835000697
  11.60000000000005826   0.40972707227383431
  11.69999999999988383   0.40930178370309811
  11.80000000000010374   0.40873376981202802
  11.89999999999989022   0.40800318024015125
  11.99999999999999822   0.40708773573029289
  12.10000000000007070   0.40597244372503688
  12.19999999999988027   0.40465749150026914
  12.30000000000010729   0.40316210982835465
  12.39999999999987956   0.40152294961242069
  12.49999999999999822   0.39978720937238449
  12.60000000000008136   0.39800304675337445
  12.69999999999987850   0.39621092989185874
  12.80000000000010907   0.39443848302584589
  12.89999999999987068   0.39269954058337897
  12.99999999999999645   0.39099736230866261
  13.10000000000009379   0.38933157348688235
  13.19999999999987494   0.38770673160169655
  13.30000000000011262   0.38613854088419863
  13.39999999999986180   0.38465441015686913
  13.49999999999999645   0.38328832691463272
  13.60000000000010445   0.38207293911365348
  13.69999999999987317   0.38103229332726485
  13.80000000000011440   0.38017749408656182
  13.89999999999985292   0.37950591659921556
  13.99999999999999645   0.37900309700582396
  14.10000000000010445   0.37864571819196380
  14.19999999999987139   0.37840471868221576
  14.30000000000011617   0.37824870234807384
  14.39999999999984581   0.37814814253649298
  14.49999999999999645   0.37808023655091527
  14.60000000000011333   0.37803334287456047
  14.69999999999986962   0.37800925203646768
  14.80000000000011795   0.37802180348747938
  14.89999999999983871   0.37809185601859668
  14.99999999999999645   0.37824022525995615
  15.10000000000012044   0.37848063927658937
  15.19999999999986784   0.37881414912301120
  15.30000000000012150   0.37922586003779524
  15.39999999999983338   0.37968498269879158
  15.49999999999999645   0.38014933146911439
  15.60000000000012932   0.38057414816360990
  15.69999999999986429   0.38092281412782336
  15.80000000000012328   0.38117562214905759
  15.89999999999982627   0.38133335714904026
  15.99999999999999645   0.38141443635123085
  16.10000000000013642   0.38144681262874008
  16.19999999999986073   0.38145769243745392
  16.30000000000012506   0.38146475850249950
  16.39999999999982094   0.38147201922711821
  16.49999999999999645   0.38147150440311511
  16.60000000000014353   0.38144918096884661
  16.69999999999988205   0.38139138483100282
  16.80000000000010729   0.38128861537455860
  16.89999999999981384   0.38113641500578593
  16.99999999999999645   0.38093526938534034
  17.10000000000015774   0.38069069896886615
  17.19999999999990692   0.38041264902043415
  17.30000000000007887   0.38011303726127926
  17.39999999999983515   0.37980195688800578
  17.49999999999999645   0.37948438504344451
  17.60000000000016129   0.37915906340358524
  17.69999999999993179   0.37881996074027713
  17.80000000000005755   0.37845959094839826
  17.89999999999983160   0.37807294467146085
  17.99999999999999645   0.37766069946869452
  18.10000000000016840   0.37723067316147280
  18.19999999999995666   0.37679710052694160
  18.30000000000003624   0.37637789496640262
  18.39999999999982450   0.37599066587974456
  18.49999999999999645   0.37564891270379452
  18.60000000000017550   0.37535977212760119
  18.69999999999997797   0.37512352376029573
  18.80000000000001847   0.37493390269269500
  18.89999999999982094   0.37477871804422863
  19.00000000000000000   0.37464175744883577
  19.10000000000017906   0.37450700191519759
  19.19999999999999574   0.37436420231838946
  19.30000000000000071   0.37421328415665500
  19.39999999999981739   0.37406560029001135
  19.50000000000000355   0.37394169853242665
  19.60000000000018616   0.37386646695331227
  19.70000000000001705   0.37386284887201215
  19.79999999999998295   0.37394519430607687
  19.89999999999981384   0.37411359247359305
  20.00000000000000355   0.37435123209647186
  20.10000000000018971   0.37462656688270529
  20.20000000000003837   0.37490019960807675
  20.29999999999996874   0.37513427746020028
  20.39999999999981029   0.37530111783043851
  20.50000000000000355   0.37538803224803824
  20.60000000000019327   0.37539687153104728
  20.70000000000005258   0.37533910674758453
  20.79999999999995453   0.37522895111847737
  20.89999999999980673   0.37507736853166102
  21.00000000000000355   0.37488917393279747
  21.10000000000021814   0.37466417618187570
  21.20000000000007034   0.37440152725544257
  21.29999999999994031   0.37410471344879653
  21.39999999999980673   0.37378426935731968
  21.50000000000000355   0.37345681970003219
  21.60000000000022169   0.37314093895040590
  21.70000000000008455   0.37285123176518115
  21.79999999999992255   0.37259268648554839
  21.89999999999980318   0.37235810801726571
  22.00000000000000355   0.37213077545933032
  22.10000000000022524   0.37189182731994291
  22.20000000000009877   0.37162918308627274
  22.29999999999990834   0.37134397589978790
  22.39999999999979963   0.37105172354917870
  22.50000000000000355   0.37077782669724785
  22.60000000000022879   0.37054923062938466
  22.70000000000019824   0.37038511191391149
  22.79999999999989413   0.37028919894357593
  22.89999999999979607   0.37024598396999231
  23.00000000000000355   0.37022281923694300
  23.10000000000023235   0.37017829377155692
  23.20000000000020535   0.37007425277361000
  23.29999999999987992   0.36988655711180018
  23.39999999999979607   0.36961016719543716
  23.50000000000001066   0.36925716049522783
  23.60000000000023590   0.36884981411602247
  23.70000000000021956   0.36841260015139499
  23.79999999999988702   0.36796605352488415
  23.89999999999979252   0.36752353235798091
  24.00000000000000711   0.36709105784298335
  24.10000000000023945   0.36667054415563444
  24.20000000000023022   0.36626580469752801
  24.29999999999987637   0.36588847256056167
  24.39999999999978897   0.36555996042991501
  24.50000000000001066   0.36530751231765346
  24.60000000000024656   0.36515573178790212
  24.70000000000024087   0.36511730481812749
  24.79999999999986571   0.36518689390588471
  24.89999999999978542   0.36534074328954119
  25.00000000000001066   0.36554244379009254
  25.10000000000024656   0.36575300922589910
  25.20000000000024798   0.36594141276721132
  25.29999999999985150   0.36609157868878556
  25.39999999999978542   0.36620400817654786
  25.50000000000001066   0.36629266189496407
  25.60000000000025011   0.36637860487708168
  25.70000000000025864   0.36648194656745753
  25.79999999999984084   0.36661410234416381
  25.90000000000006963   0.36677285573460849
  26.00000000000001066   0.36694192190796465
  26.10000000000025366   0.36709492526901427
  26.20000000000026930   0.36720212071151387
  26.29999999999983373   0.36723755633429711
  26.40000000000006253   0.36718464376823257
  26.50000000000001066   0.36703896445781253
  26.60000000000025722   0.36680812661882300
  26.70000000000027995   0.36650914936571743
  26.79999999999982307   0.36616432070070187
  26.90000000000005187   0.36579693243313599
  27.00000000000001066   0.36542805376091531
  27.10000000000025722   0.36507437064651299
  27.20000000000028706   0.36474650423383376
  27.29999999999981242   0.36444801947645300
  27.40000000000004476   0.36417626215422261
  27.50000000000002487   0.36392563577527887
  27.60000000000026077   0.36369225038502506
  27.70000000000029772   0.36347756068084225
  27.79999999999980531   0.36328871075439439
  27.90000000000004121   0.36313492762175964
  28.00000000000002487   0.36302148309342969
  28.10000000000026077   0.36294405293999593
  28.20000000000030482   0.36288619683077561
  28.29999999999979821   0.36282150782873585
  28.40000000000003411   0.36272024490284366
  28.50000000000002487   0.36255847428904231
  28.60000000000033182   0.36232648986349958
  28.70000000000031193   0.36203327479248565
  28.79999999999979110   0.36170520104796922
  28.90000000000002700   0.36137942071915036
  29.00000000000002487   0.36109433705357785
  29.10000000000033182   0.36088015445688953
  29.20000000000031903   0.36075203810899181
  29.29999999999978044   0.36070761863713213
  29.40000000000001990   0.36072929918860441
  29.50000000000002487   0.36079007147403652
  29.60000000000033182   0.36086050302438538
  29.70000000000032969   0.36091491759040401
  29.79999999999976978   0.36093584798777234
  29.90000000000001634   0.36091640326603525
  30.00000000000002487   0.36085996365983802
  30.10000000000033182   0.36077679746788399
  30.20000000000035101   0.36067858852415058
  30.29999999999976268   0.36057322429649796
  30.40000000000001279   0.36046211455147420
  30.50000000000002487   0.36034088502664152
  30.60000000000033182   0.36020249703460067
  30.70000000000035811   0.36004101134597272
  30.79999999999975202   0.35985485513942078
  30.90000000000000568   0.35964917758310372
  31.00000000000002842   0.35943656449797112
  31.10000000000033538   0.35923510662981217
  31.20000000000036522   0.35906371444377455
  31.29999999999974492   0.35893607180691200
  31.40000000000000213   0.35885560151749663
  31.50000000000002842   0.35881369064864121
  31.60000000000033538   0.35879218983495081
  31.70000000000036877   0.35876939545353986
  31.79999999999974492   0.35872712995856260
  31.89999999999999503   0.35865613683825015
  32.00000000000002842   0.35855817019698399
  32.10000000000033538   0.35844485838555989
  32.20000000000037232   0.35833423091081185
  32.30000000000063665   0.35824575243683965
  32.39999999999999147   0.35819487418050450
  32.50000000000002842   0.35818861631480969
  32.60000000000033538   0.35822373394204554
  32.70000000000037943   0.35828810283118656
  32.80000000000064375   0.35836440133992037
  32.89999999999999147   0.35843413730360901
  33.00000000000002842   0.35848063173615408
  33.10000000000032117   0.35849080934258587
  33.20000000000038654   0.35845596815868852
  33.30000000000062244   0.35837157787450580
  33.40000000000001279   0.35823664632687291
  33.50000000000002842   0.35805347582652347
  33.60000000000029985   0.35782789542112553
  33.70000000000038654   0.35756923894392456
  33.80000000000059401   0.35728945602687828
  33.90000000000004121   0.35700158226579892
  34.00000000000002842   0.35671841364441881
  34.10000000000027143   0.35645180373693836
  34.20000000000040075   0.35621206103476477
  34.30000000000057270   0.35600687192558617
  34.40000000000006963   0.35584007118558020
  34.50000000000002842   0.35571112682697081
  34.60000000000025011   0.35561578070013411
  34.70000000000040075   0.35554736094647366
  34.80000000000055849   0.35549786958953833
  34.90000000000009095   0.35545853158733509
  35.00000000000002842   0.35542027706747148
  35.10000000000022169   0.35537452465833497
  35.20000000000040785   0.35531383946111478
  35.30000000000053717   0.35523186693352299
  35.40000000000011227   0.35512299322541713
  35.50000000000007816   0.35498307887940600
  35.60000000000020037   0.35481171950727053
  35.70000000000040785   0.35461448041089261
  35.80000000000052296   0.35440283691328844
  35.90000000000012648   0.35419110081190980
  36.00000000000007816   0.35399183520579042
  36.10000000000017195   0.35381206418013345
  36.20000000000041496   0.35365169621591869
  36.30000000000050875   0.35350450527430127
  36.40000000000014779   0.35336155574367195
  36.50000000000007816   0.35321610132239462
  36.60000000000016485   0.35306755376304383
  36.70000000000042206   0.35292208297785099
  36.80000000000049454   0.35278966967236419
  36.90000000000016200   0.35267993952779764
  37.00000000000007816   0.35259928857134393
  37.10000000000014353   0.35254961748126895
  37.20000000000042206   0.35252724219084947
  37.30000000000048033   0.35252150138150823
  37.40000000000018332   0.35251479899386057
  37.50000000000007816   0.35248588763185879
  37.60000000000012221   0.35241572441785551
  37.70000000000042917   0.35229338962411438
  37.80000000000046612   0.35212018986261351
  37.90000000000020464   0.35191135031460119
  38.00000000000007816   0.35169468245562929
  38.10000000000010090   0.35150523911110992
  38.20000000000062812   0.35137620968787053
  38.30000000000044480   0.35132892088065831
  38.40000000000021885   0.35136632788698385
  38.50000000000007816   0.35147287707022046
  38.60000000000007958   0.35162015561654342
  38.70000000000063523   0.35177542282370761
  38.80000000000043059   0.35191013914119196
  38.90000000000023306   0.35200638015197327
  39.00000000000007816   0.35205947986816244
  39.10000000000006537   0.35207616708716777
  39.20000000000063523   0.35206930491869426
  39.30000000000041638   0.35205187687490480
  39.40000000000024727   0.35203255599646771
  39.50000000000007816   0.35201367623450913
  39.60000000000004405   0.35199146977586210
  39.70000000000063523   0.35195817935644358
  39.80000000000040217   0.35190518307031610
  39.90000000000026148   0.35182566641374508
  40.00000000000007816   0.35171561344659713
  40.10000000000002274   0.35157304706779430
  40.20000000000063523   0.35139649827469044
  40.30000000000040217   0.35118382775881807
  40.40000000000027569   0.35093189273214009
  40.50000000000007816   0.35063699285801997
  40.60000000000000853   0.35029612966102053
  40.70000000000063523   0.34990924584561151
  40.80000000000038796   0.34948197868588343
  40.90000000000028990   0.34902749438736647
  41.00000000000007105   0.34856596784515431
  41.09999999999999432   0.34812158768454354
  41.20000000000063523   0.34771828229711466
  41.30000000000037375   0.34737555511729995
  41.40000000000034674   0.34710526505028627
  41.50000000000007105   0.34690978073532919
  41.59999999999997300   0.34678198575443153
  41.70000000000064233   0.34670749336611756
  41.80000000000035953   0.34666859550498019
  41.90000000000036806   0.34664853106916865
  42.00000000000007105   0.34663463256214838
  42.09999999999995879   0.34661979072482774
  42.20000000000064233   0.34660254235259846
  42.30000000000035243   0.34658630227155329
  42.40000000000038227   0.34657799796510114
  42.50000000000007105   0.34658617436109901
  42.59999999999994458   0.34661878313194633
