# Spinless fermions Hamiltonian with random disorder and nearest neighbour interactions
# L=20 (size), J=0.5 (hoping amplitude), V=0.5 (interaction), W/J=2 (disorder strength), N=200 (disorder realizations), T=500 (number of trajectories)
# Evolution of Imbalance in time (fTWA method)
# time t, Imbalance I

   0.00000000000000000   1.00000000000000000
   0.10000000000000088   0.99037847640306753
   0.20000000000000176   0.96219160760784872
   0.29999999999999993   0.91651054005310129
   0.40000000000000352   0.85505684562279927
   0.50000000000000000   0.78011833213144599
   0.59999999999999987   0.69443737907075065
   0.69999999999999352   0.60107721865779074
   0.80000000000000704   0.50327435620497707
   0.89999999999999247   0.40428650413317102
   0.99999999999999989   0.30724591296643072
   1.10000000000001030   0.21502726375835823
   1.19999999999999973   0.13013752038910131
   1.29999999999999671   0.05463265914628181
   1.39999999999998703  -0.00993651131450723
   1.50000000000000022  -0.06254969507795996
   1.60000000000001408  -0.10271577925744964
   1.70000000000001328  -0.13044818942772102
   1.79999999999998495  -0.14622084366543125
   1.89999999999998459  -0.15090870568162829
   2.00000000000000044  -0.14571680738586298
   2.10000000000001341  -0.13210144714355843
   2.20000000000002061  -0.11168719769817688
   2.29999999999997851  -0.08618335947101073
   2.39999999999999947  -0.05730348975019860
   2.50000000000000044  -0.02669150666967865
   2.59999999999999343   0.00414249479816380
   2.70000000000002505   0.03387418300099383
   2.79999999999997451   0.06140298575910582
   2.90000000000001545   0.08587538941336842
   3.00000000000000044   0.10669374155235763
   3.09999999999997966   0.12351161870788144
   3.20000000000002816   0.13621749991067197
   3.29999999999997140   0.14490896349589064
   3.40000000000002656   0.14985988731686345
   3.50000000000000044   0.15148320177376681
   3.59999999999997033   0.15029165556095619
   3.70000000000003038   0.14685883697985122
   3.79999999999996918   0.14178239274947033
   3.90000000000003499   0.13565101953372094
   4.00000000000000089   0.12901641177260961
   4.09999999999996323   0.12237094842842319
   4.20000000000002682   0.11613150940465619
   4.29999999999997851   0.11062944958894122
   4.40000000000004121   0.10610643513596596
   4.50000000000000000   0.10271557530179490
   4.59999999999995701   0.10052706702245498
   4.70000000000000462   0.09953742336356837
   4.79999999999999893   0.09968126804938050
   4.90000000000004654   0.10084466184439393
   4.99999999999999911   0.10287897083616029
   5.09999999999995168   0.10561438612692799
   5.19999999999998685   0.10887234965771081
   5.30000000000001670   0.11247631196621272
   5.40000000000005009   0.11626043183847569
   5.49999999999999911   0.12007601130148249
   5.59999999999994813   0.12379563287867815
   5.69999999999997176   0.12731512396621791
   5.80000000000002913   0.13055360719893652
   5.90000000000005365   0.13345200173027350
   5.99999999999999911   0.13597040576987196
   6.09999999999994458   0.13808481595479813
   6.19999999999995932   0.13978362086033216
   6.30000000000004157   0.14106424946741455
   6.40000000000005631   0.14193026972493561
   6.49999999999999911   0.14238912493441241
   6.59999999999993836   0.14245059182355541
   6.69999999999994866   0.14212594570700798
   6.80000000000005222   0.14142774355998466
   6.90000000000005720   0.14037008275308019
   6.99999999999999911   0.13896917101914114
   7.09999999999993658   0.13724403584463687
   7.19999999999993889   0.13521721606757009
   7.30000000000006111   0.13291529882705383
   7.40000000000005986   0.13036920651674380
   7.49999999999999911   0.12761417330173974
   7.59999999999993392   0.12468940046206695
   7.69999999999993090   0.12163741966468393
   7.80000000000006821   0.11850322190852708
   7.90000000000006164   0.11533322329564454
   7.99999999999999911   0.11217413500132650
   8.09999999999993214   0.10907179389437135
   8.19999999999991047   0.10606999122477261
   8.30000000000007532   0.10320932795825373
   8.40000000000005365   0.10052612432543563
   8.49999999999999822   0.09805141938714249
   8.59999999999995346   0.09581011264401135
   8.69999999999990514   0.09382031032347475
   8.80000000000008065   0.09209294428207197
   8.90000000000002878   0.09063171895571256
   8.99999999999999822   0.08943341670486053
   9.09999999999997478   0.08848855302742285
   9.19999999999989981   0.08778233251431393
   9.30000000000008420   0.08729582413714906
   9.40000000000000746   0.08700725327206010
   9.49999999999999822   0.08689330437737555
   9.59999999999999432   0.08693034549777735
   9.69999999999989626   0.08709550646949502
   9.80000000000008953   0.08736756979969018
   9.89999999999998970   0.08772765743631894
   9.99999999999999822   0.08815970938177851
  10.10000000000001208   0.08865075704000848
  10.19999999999989271   0.08919099807574246
  10.30000000000009308   0.08977367789176117
  10.39999999999997193   0.09039478661838643
  10.49999999999999822   0.09105258626017947
  10.60000000000002984   0.09174699230110722
  10.69999999999988916   0.09247884862708766
  10.80000000000009663   0.09324915044340570
  10.89999999999995595   0.09405827998177152
  10.99999999999999822   0.09490532653380226
  11.10000000000004405   0.09578755519086676
  11.19999999999988560   0.09670007741117015
  11.30000000000010019   0.09763575016823642
  11.39999999999990266   0.09858530401484042
  11.49999999999999822   0.09953766695084465
  11.60000000000005826   0.10048042672478019
  11.69999999999988383   0.10140036023227203
  11.80000000000010374   0.10228395634301453
  11.89999999999989022   0.10311787674124967
  11.99999999999999822   0.10388932153026775
  12.10000000000007070   0.10458629393472706
  12.19999999999988027   0.10519777945245076
  12.30000000000010729   0.10571386689975661
  12.39999999999987956   0.10612584151381788
  12.49999999999999822   0.10642627478027662
  12.60000000000008136   0.10660912420575303
  12.69999999999987850   0.10666984541606388
  12.80000000000010907   0.10660550715511719
  12.89999999999987068   0.10641489607693751
  12.99999999999999645   0.10609859779070914
  13.10000000000009379   0.10565904767353158
  13.19999999999987494   0.10510055342797095
  13.30000000000011262   0.10442929363912848
  13.39999999999986180   0.10365329636528120
  13.49999999999999645   0.10278238993711185
  13.60000000000010445   0.10182811262095721
  13.69999999999987317   0.10080355613430222
  13.80000000000011440   0.09972312603758350
  13.89999999999985292   0.09860221172925891
  13.99999999999999645   0.09745677787963718
  14.10000000000010445   0.09630290620181287
  14.19999999999987139   0.09515632542859385
  14.30000000000011617   0.09403196650686618
  14.39999999999984581   0.09294357362569070
  14.49999999999999645   0.09190338908261941
  14.60000000000011333   0.09092192238167124
  14.69999999999986962   0.09000780644803073
  14.80000000000011795   0.08916774008144303
  14.89999999999983871   0.08840651315173609
  14.99999999999999645   0.08772710661238481
  15.10000000000012044   0.08713085463420345
  15.19999999999986784   0.08661765097961328
  15.30000000000012150   0.08618617918557386
  15.39999999999983338   0.08583414697881900
  15.49999999999999645   0.08555850777517929
  15.60000000000012932   0.08535565771510990
  15.69999999999986429   0.08522160226149927
  15.80000000000012328   0.08515209363042266
  15.89999999999982627   0.08514274194496313
  15.99999999999999645   0.08518910698788180
  16.10000000000013642   0.08528677356246497
  16.19999999999986073   0.08543141059289017
  16.30000000000012506   0.08561880663574672
  16.39999999999982094   0.08584486901583240
  16.49999999999999645   0.08610557404258580
  16.60000000000014353   0.08639686391561036
  16.69999999999988205   0.08671449754550638
  16.80000000000010729   0.08705387856753606
  16.89999999999981384   0.08740989338307592
  16.99999999999999645   0.08777679517812459
  17.10000000000015774   0.08814816604490387
  17.19999999999990692   0.08851697667295308
  17.30000000000007887   0.08887575055606338
  17.39999999999983515   0.08921682060533506
  17.49999999999999645   0.08953265319583789
  17.60000000000016129   0.08981620129723421
  17.69999999999993179   0.09006124589282426
  17.80000000000005755   0.09026268866177506
  17.89999999999983160   0.09041677027749020
  17.99999999999999645   0.09052120138114753
  18.10000000000016840   0.09057520755615794
  18.19999999999995666   0.09057949556649414
  18.30000000000003624   0.09053615360357170
  18.39999999999982450   0.09044849788690572
  18.49999999999999645   0.09032087764090992
  18.60000000000017550   0.09015844613751552
  18.69999999999997797   0.08996690534528623
  18.80000000000001847   0.08975222752454665
  18.89999999999982094   0.08952036085373076
  19.00000000000000000   0.08927693044076372
  19.10000000000017906   0.08902695385665448
  19.19999999999999574   0.08877460052166940
  19.30000000000000071   0.08852302536343623
  19.39999999999981739   0.08827430515455131
  19.50000000000000355   0.08802948688123742
  19.60000000000018616   0.08778874147990132
  19.70000000000001705   0.08755159088436558
  19.79999999999998295   0.08731716417403494
  19.89999999999981384   0.08708443895093268
  20.00000000000000355   0.08685243148865536
  20.10000000000018971   0.08662032232870949
  20.20000000000003837   0.08638752038715865
  20.29999999999996874   0.08615368259434182
  20.39999999999981029   0.08591870919447764
  20.50000000000000355   0.08568273278696056
  20.60000000000019327   0.08544610985081713
  20.70000000000005258   0.08520941695618851
  20.79999999999995453   0.08497344485874848
  20.89999999999980673   0.08473918269609096
  21.00000000000000355   0.08450778356360508
  21.10000000000021814   0.08428051109371115
  21.20000000000007034   0.08405867410807424
  21.29999999999994031   0.08384356478706653
  21.39999999999980673   0.08363641446892017
  21.50000000000000355   0.08343837576441233
  21.60000000000022169   0.08325052550784459
  21.70000000000008455   0.08307387283006339
  21.79999999999992255   0.08290935273734823
  21.89999999999980318   0.08275778892294994
  22.00000000000000355   0.08261982099676865
  22.10000000000022524   0.08249580878903080
  22.20000000000009877   0.08238573774524907
  22.29999999999990834   0.08228915623673473
  22.39999999999979963   0.08220516697601023
  22.50000000000000355   0.08213248382856962
  22.60000000000022879   0.08206954531396964
  22.70000000000019824   0.08201465980886899
  22.79999999999989413   0.08196615209080424
  22.89999999999979607   0.08192248243770379
  23.00000000000000355   0.08188232153617413
  23.10000000000023235   0.08184457839297206
  23.20000000000020535   0.08180839340116249
  23.29999999999987992   0.08177311296778095
  23.39999999999979607   0.08173826354374901
  23.50000000000001066   0.08170353486353867
  23.60000000000023590   0.08166877330658159
  23.70000000000021956   0.08163397720842273
  23.79999999999988702   0.08159928203904578
  23.89999999999979252   0.08156492743446178
  24.00000000000000711   0.08153120407940567
  24.10000000000023945   0.08149838895890590
  24.20000000000023022   0.08146668449794453
  24.29999999999987637   0.08143617882994732
  24.39999999999978897   0.08140683703716876
  24.50000000000001066   0.08137852675351534
  24.60000000000024656   0.08135106902093478
  24.70000000000024087   0.08132430268677208
  24.79999999999986571   0.08129814605598394
  24.89999999999978542   0.08127263979822758
  25.00000000000001066   0.08124796024252272
  25.10000000000024656   0.08122439369878273
  25.20000000000024798   0.08120226562476202
  25.29999999999985150   0.08118182848921995
  25.39999999999978542   0.08116311435032283
  25.50000000000001066   0.08114577133014748
  25.60000000000025011   0.08112890542475239
  25.70000000000025864   0.08111095329835939
  25.79999999999984084   0.08108960760626920
  25.90000000000006963   0.08106180795517899
  26.00000000000001066   0.08102380357077925
  26.10000000000025366   0.08097128479381142
  26.20000000000026930   0.08089958001108510
  26.29999999999983373   0.08080390997873912
  26.40000000000006253   0.08067969273309000
  26.50000000000001066   0.08052288680065942
  26.60000000000025722   0.08033035181982413
  26.70000000000027995   0.08010020163203815
  26.79999999999982307   0.07983211294252128
  26.90000000000005187   0.07952755589898239
  27.00000000000001066   0.07918991418232561
  27.10000000000025722   0.07882447461568685
  27.20000000000028706   0.07843827623703749
  27.29999999999981242   0.07803982307494745
  27.40000000000004476   0.07763867442843662
  27.50000000000002487   0.07724493791732419
  27.60000000000026077   0.07686870101866060
  27.70000000000029772   0.07651944287359416
  27.79999999999980531   0.07620547600173365
  27.90000000000004121   0.07593346616495547
  28.00000000000002487   0.07570807194078984
  28.10000000000026077   0.07553173070039314
  28.20000000000030482   0.07540459791169740
  28.29999999999979821   0.07532463018468573
  28.40000000000003411   0.07528778949083398
  28.50000000000002487   0.07528834200732457
  28.60000000000033182   0.07531922611648946
  28.70000000000031193   0.07537246655370920
  28.79999999999979110   0.07543961417052811
  28.90000000000002700   0.07551219420667915
  29.00000000000002487   0.07558214235855328
  29.10000000000033182   0.07564221090174289
  29.20000000000031903   0.07568632865826436
  29.29999999999978044   0.07570990154413212
  29.40000000000001990   0.07571004280822087
  29.50000000000002487   0.07568572183953766
  29.60000000000033182   0.07563781524878804
  29.70000000000032969   0.07556904004998033
  29.79999999999976978   0.07548374991399416
  29.90000000000001634   0.07538758656956487
  30.00000000000002487   0.07528699854817165
  30.10000000000033182   0.07518866670722418
  30.20000000000035101   0.07509889837740837
  30.29999999999976268   0.07502306237913661
  30.40000000000001279   0.07496513317121237
  30.50000000000002487   0.07492739507914510
  30.60000000000033182   0.07491032879747951
  30.70000000000035811   0.07491267801029367
  30.79999999999975202   0.07493167175253909
  30.90000000000000568   0.07496336322675978
  31.00000000000002842   0.07500304452921609
  31.10000000000033538   0.07504569395082190
  31.20000000000036522   0.07508641669900661
  31.29999999999974492   0.07512084721378241
  31.40000000000000213   0.07514548176968799
  31.50000000000002842   0.07515791950892034
  31.60000000000033538   0.07515699319208063
  31.70000000000036877   0.07514278225174337
  31.79999999999974492   0.07511650821065471
  31.89999999999999503   0.07508032417447205
  32.00000000000002842   0.07503701961552980
  32.10000000000033538   0.07498967029921097
  32.20000000000037232   0.07494126779097493
  32.30000000000063665   0.07489436668440347
  32.39999999999999147   0.07485078499047515
  32.50000000000002842   0.07481138572583798
  32.60000000000033538   0.07477596088741875
  32.70000000000037943   0.07474322615382599
  32.80000000000064375   0.07471092643205109
  32.89999999999999147   0.07467604018826596
  33.00000000000002842   0.07463506126554219
  33.10000000000032117   0.07458432785629095
  33.20000000000038654   0.07452036127183179
  33.30000000000062244   0.07444017781354530
  33.40000000000001279   0.07434154021649203
  33.50000000000002842   0.07422312735095300
  33.60000000000029985   0.07408461714383564
  33.70000000000038654   0.07392668841515075
  33.80000000000059401   0.07375095820761797
  33.90000000000004121   0.07355987038543818
  34.00000000000002842   0.07335654932639900
  34.10000000000027143   0.07314462743865026
  34.20000000000040075   0.07292805339910634
  34.30000000000057270   0.07271088753887103
  34.40000000000006963   0.07249709837305458
  34.50000000000002842   0.07229037398633356
  34.60000000000025011   0.07209396385957265
  34.70000000000040075   0.07191056254520831
  34.80000000000055849   0.07174224157538635
  34.90000000000009095   0.07159042847030352
  35.00000000000002842   0.07145592895307973
  35.10000000000022169   0.07133898332818549
  35.20000000000040785   0.07123934859932174
  35.30000000000053717   0.07115639779217708
  35.40000000000011227   0.07108922730263999
  35.50000000000007816   0.07103676452769063
  35.60000000000020037   0.07099786798707039
  35.70000000000040785   0.07097140800900044
  35.80000000000052296   0.07095631721574563
  35.90000000000012648   0.07095159903169310
  36.00000000000007816   0.07095628633899626
  36.10000000000017195   0.07096935396676446
  36.20000000000041496   0.07098959523361680
  36.30000000000050875   0.07101548574580735
  36.40000000000014779   0.07104506222349245
  36.50000000000007816   0.07107584546918649
  36.60000000000016485   0.07110483118414775
  36.70000000000042206   0.07112856187749353
  36.80000000000049454   0.07114328306135785
  36.90000000000016200   0.07114517528931935
  37.00000000000007816   0.07113064513372294
  37.10000000000014353   0.07109664751150480
  37.20000000000042206   0.07104100850897194
  37.30000000000048033   0.07096270891330579
  37.40000000000018332   0.07086209210462567
  37.50000000000007816   0.07074096068117836
  37.60000000000012221   0.07060253888748048
  37.70000000000042917   0.07045129094441424
  37.80000000000046612   0.07029260787382588
  37.90000000000020464   0.07013239196358896
  38.00000000000007816   0.06997658780614639
  38.10000000000010090   0.06983071737256423
  38.20000000000062812   0.06969947592734196
  38.30000000000044480   0.06958643451816482
  38.40000000000021885   0.06949387468949934
  38.50000000000007816   0.06942275838689105
  38.60000000000007958   0.06937281329092851
  38.70000000000063523   0.06934270235632954
  38.80000000000043059   0.06933023845825721
  38.90000000000023306   0.06933260789018393
  39.00000000000007816   0.06934657347004829
  39.10000000000006537   0.06936863933564981
  39.20000000000063523   0.06939517125189731
  39.30000000000041638   0.06942247849960353
  39.40000000000024727   0.06944687558900231
  39.50000000000007816   0.06946474808823105
  39.60000000000004405   0.06947264653827456
  39.70000000000063523   0.06946742519895489
  39.80000000000040217   0.06944642474831833
  39.90000000000026148   0.06940767929835376
  40.00000000000007816   0.06935011080350247
  40.10000000000002274   0.06927366456951332
  40.20000000000063523   0.06917934837694087
  40.30000000000040217   0.06906915426467113
  40.40000000000027569   0.06894586826051113
  40.50000000000007816   0.06881279817609100
  40.60000000000000853   0.06867346825228705
  40.70000000000063523   0.06853133205853591
  40.80000000000038796   0.06838954807761694
  40.90000000000028990   0.06825084411657908
  41.00000000000007105   0.06811747160688653
  41.09999999999999432   0.06799122850773004
  41.20000000000063523   0.06787351590179858
  41.30000000000037375   0.06776538965770312
  41.40000000000034674   0.06766757664659667
  41.50000000000007105   0.06758044492937768
  41.59999999999997300   0.06750393438909090
  41.70000000000064233   0.06743747263483439
  41.80000000000035953   0.06737991088790717
  41.90000000000036806   0.06732951008404568
  42.00000000000007105   0.06728399964488711
  42.09999999999995879   0.06724071454385629
  42.20000000000064233   0.06719680048820269
  42.30000000000035243   0.06714946525114937
  42.40000000000038227   0.06709624474097362
  42.50000000000007105   0.06703525148239498
  42.59999999999994458   0.06696537499261479
