# Long-range Heisenberg model
# L = 45, S_z^tot = -35/2, J = 1, Delta = 0.2, Alpha = 2.0
# Time dependence of center of mass, i.e. first density moment of <Sz_l(t)>
# time, center of mass

0.0000000000000000 3.0000000000000000
5.0000000000000003E-002 3.0001929852340501
0.10000000000000001 3.0007714691297749
0.15000000000000002 3.0017340422161447
0.20000000000000001 3.0030783751012766
0.25000000000000000 3.0048012477107102
0.29999999999999999 3.0068985895256004
0.34999999999999998 3.0093655301434006
0.39999999999999997 3.0121964593145405
0.44999999999999996 3.0153850954578232
0.49999999999999994 3.0189245615267501
0.54999999999999993 3.0228074669918095
0.59999999999999998 3.0270259946216558
0.65000000000000002 3.0315719906901806
0.70000000000000007 3.0364370572072734
0.75000000000000011 3.0416126447691378
0.80000000000000016 3.0470901446477914
0.85000000000000020 3.0528609787884000
0.90000000000000024 3.0589166864551629
0.95000000000000029 3.0652490063596782
1.0000000000000002 3.0718499532166521
1.0500000000000003 3.0787118877988715
1.1000000000000003 3.0858275797020718
1.1500000000000004 3.0931902621776675
1.2000000000000004 3.1007936785450974
1.2500000000000004 3.1086321198498998
1.3000000000000005 3.1167004535888703
1.3500000000000005 3.1249941434733426
1.4000000000000006 3.1335092603450208
1.4500000000000006 3.1422424844930026
1.5000000000000007 3.1511910997441399
1.5500000000000007 3.1603529798076546
1.6000000000000008 3.1697265674515758
1.6500000000000008 3.1793108471676730
1.7000000000000008 3.1891053120468249
1.7500000000000009 3.1991099256344460
1.8000000000000009 3.2093250795684471
1.8500000000000010 3.2197515478191794
1.9000000000000010 3.2303904383527304
1.9500000000000011 3.2412431430294135
2.0000000000000009 3.2523112865233985
2.0500000000000007 3.2635966750167360
2.1000000000000005 3.2751012453755610
2.1500000000000004 3.2868270154639516
2.2000000000000002 3.2987760361916680
2.2500000000000000 3.3109503458280005
2.2999999999999998 3.3233519270454512
2.3499999999999996 3.3359826670871469
2.3999999999999995 3.3488443213797265
2.4499999999999993 3.3619384808451787
2.4999999999999991 3.3752665430920095
2.5499999999999989 3.3888296876022812
2.5999999999999988 3.4026288549646688
2.6499999999999986 3.4166647301469211
2.6999999999999984 3.4309377297416890
2.7499999999999982 3.4454479930739286
2.7999999999999980 3.4601953770090521
2.8499999999999979 3.4751794542646195
2.8999999999999977 3.4903995149934262
2.9499999999999975 3.5058545713777649
2.9999999999999973 3.5215433649532923
3.0499999999999972 3.5374643763640283
3.0999999999999970 3.5536158372384739
3.1499999999999968 3.5699957438706531
3.1999999999999966 3.5866018723900934
3.2499999999999964 3.6034317951051889
3.2999999999999963 3.6204828977142420
3.3499999999999961 3.6377523970883452
3.3999999999999959 3.6552373593449596
3.4499999999999957 3.6729347179448726
3.4999999999999956 3.6908412915722359
3.5499999999999954 3.7089538015699404
3.5999999999999952 3.7272688887320915
3.6499999999999950 3.7457831292734696
3.6999999999999948 3.7644930498295568
3.7499999999999947 3.7833951413532820
3.7999999999999945 3.8024858718114918
3.8499999999999943 3.8217616976018687
3.8999999999999941 3.8412190736371006
3.9499999999999940 3.8608544620637524
3.9999999999999938 3.8806643396096017
4.0499999999999936 3.9006452035703991
4.0999999999999934 3.9207935764641886
4.1499999999999932 3.9411060094027612
4.1999999999999931 3.9615790842423753
4.2499999999999929 3.9822094145867619
4.2999999999999927 4.0029936457339472
4.3499999999999925 4.0239284536594537
4.3999999999999924 4.0450105431421433
4.4499999999999922 4.0662366451399938
4.4999999999999920 4.0876035135309001
4.5499999999999918 4.1091079213325052
4.5999999999999917 4.1307466565146100
4.6499999999999915 4.1525165175205805
4.6999999999999913 4.1744143086058259
4.7499999999999911 4.1964368351010295
4.7999999999999909 4.2185808987032445
4.8499999999999908 4.2408432928834721
4.8999999999999906 4.2632207985065671
4.9499999999999904 4.2857101797354318
4.9999999999999902 4.3083081802944472
5.0499999999999901 4.3310115201551165
5.0999999999999899 4.3538168926898191
5.1499999999999897 4.3767209623449217
5.1999999999999895 4.3997203628616441
5.2499999999999893 4.4228116960698296
5.2999999999999892 4.4459915312696747
5.3499999999999890 4.4692564052103432
5.3999999999999888 4.4926028226594967
5.4499999999999886 4.5160272575528611
5.4999999999999885 4.5395261547179446
5.5499999999999883 4.5630959321297846
5.5999999999999881 4.5867329836883730
5.6499999999999879 4.6104336824695800
5.6999999999999877 4.6341943844186408
5.7499999999999876 4.6580114324412429
5.7999999999999874 4.6818811608470625
5.8499999999999872 4.7057999001028543
5.8999999999999870 4.7297639818412129
5.9499999999999869 4.7537697440817155
5.9999999999999867 4.7778135366151169
6.0499999999999865 4.8018917265014771
6.0999999999999863 4.8260007036389627
6.1499999999999861 4.8501368863565570
6.1999999999999860 4.8742967269913269
6.2499999999999858 4.8984767174114188
6.2999999999999856 4.9226733944454217
6.3499999999999854 4.9468833451863130
6.3999999999999853 4.9711032121395879
6.4499999999999851 4.9953296981973248
6.4999999999999849 5.0195595713972576
6.5499999999999847 5.0437896694627291
6.5999999999999845 5.0680169040998635
6.6499999999999844 5.0922382650396791
6.6999999999999842 5.1164508238166624
6.7499999999999840 5.1406517372688016
6.7999999999999838 5.1648382507626200
6.8499999999999837 5.1890077011361049
6.8999999999999835 5.2131575193549669
6.9499999999999833 5.2372852328898638
6.9999999999999831 5.2613884678145402
7.0499999999999829 5.2854649506251530
7.0999999999999828 5.3095125097940201
7.1499999999999826 5.3335290770578778
7.1999999999999824 5.3575126884470903
7.2499999999999822 5.3814614850739053
7.2999999999999821 5.4053737136688316
7.3499999999999819 5.4292477268985229
7.3999999999999817 5.4530819834564142
7.4499999999999815 5.4768750479397346
7.4999999999999813 5.5006255905308938
7.5499999999999812 5.5243323864751162
7.5999999999999810 5.5479943153892588
7.6499999999999808 5.5716103603823850
7.6999999999999806 5.5951796070252877
7.7499999999999805 5.6187012421560638
7.7999999999999803 5.6421745525437546
7.8499999999999801 5.6655989234107649
7.8999999999999799 5.6889738368299039
7.9499999999999797 5.7122988699955766
7.9999999999999796 5.7355736933844579
8.0499999999999794 5.7587980688007763
8.0999999999999801 5.7819718473237698
8.1499999999999808 5.8050949671594534
8.1999999999999815 5.8281674513914092
8.2499999999999822 5.8511894056555995
8.2999999999999829 5.8741610157166111
8.3499999999999837 5.8970825449710631
8.3999999999999844 5.9199543318688317
8.4499999999999851 5.9427767872512840
8.4999999999999858 5.9655503916148493
8.5499999999999865 5.9882756922996618
8.5999999999999872 6.0109533005957037
8.6499999999999879 6.0335838887809627
8.6999999999999886 6.0561681870694386
8.7499999999999893 6.0787069804958982
8.7999999999999901 6.1012011057138569
8.8499999999999908 6.1236514477218336
8.8999999999999915 6.1460589365090570
8.9499999999999922 6.1684245436282161
8.9999999999999929 6.1907492786966536
9.0499999999999936 6.2130341858227780
9.0999999999999943 6.2352803399675736
9.1499999999999950 6.2574888432433058
9.1999999999999957 6.2796608211540832
9.2499999999999964 6.3017974187908603
9.2999999999999972 6.3238997969811619
9.3499999999999979 6.3459691284106867
9.3999999999999986 6.3680065937189205
9.4499999999999993 6.3900133775975689
9.5000000000000000 6.4119906648843941
9.5500000000000007 6.4339396366837311
9.6000000000000014 6.4558614665242553
9.6500000000000021 6.4777573165678488
9.7000000000000028 6.4996283338981202
9.7500000000000036 6.5214756468876303
9.8000000000000043 6.5433003616875709
9.8500000000000050 6.5651035588401800
9.9000000000000057 6.5868862900403533
9.9500000000000064 6.6086495750650540
10.000000000000007 6.6303943988885994
10.050000000000008 6.6521217090032696
10.100000000000009 6.6738324129560755
10.150000000000009 6.6955273761253338
10.200000000000010 6.7172074197465932
10.250000000000011 6.7388733191949557
10.300000000000011 6.7605258025497381
10.350000000000012 6.7821655494221096
10.400000000000013 6.8037931900902908
10.450000000000014 6.8254093049067714
10.500000000000014 6.8470144240023441
10.550000000000015 6.8686090272878246
10.600000000000016 6.8901935447234797
10.650000000000016 6.9117683568859167
10.700000000000017 6.9333337957993262
10.750000000000018 6.9548901460214907
10.800000000000018 6.9764376459889341
10.850000000000019 6.9979764895892203
10.900000000000020 7.0195068279479571
10.950000000000021 7.0410287714195876
11.000000000000021 7.0625423917533210
11.050000000000022 7.0840477244215725
11.100000000000023 7.1055447710804103
11.150000000000023 7.1270335021554576
11.200000000000024 7.1485138595132138
11.250000000000025 7.1699857592055523
11.300000000000026 7.1914490942706975
11.350000000000026 7.2129037375536562
11.400000000000027 7.2343495445426296
11.450000000000028 7.2557863561861771
11.500000000000028 7.2772140016867786
11.550000000000029 7.2986323012405734
11.600000000000030 7.3200410687118795
11.650000000000031 7.3414401142344250
11.700000000000031 7.3628292467121632
11.750000000000032 7.3842082762195016
11.800000000000033 7.4055770162896009
11.850000000000033 7.4269352860637019
11.900000000000034 7.4482829123364080
11.950000000000035 7.4696197314415276
12.000000000000036 7.4909455910117622
12.050000000000036 7.5122603515930786
12.100000000000037 7.5335638881145472
12.150000000000038 7.5548560912205902
12.200000000000038 7.5761368684552481
12.250000000000039 7.5974061453184865
12.300000000000040 7.6186638661780153
12.350000000000041 7.6399099950553708
12.400000000000041 7.6611445162839500
12.450000000000042 7.6823674350499047
12.500000000000043 7.7035787778122877
12.550000000000043 7.7247785926286925
12.600000000000044 7.7459669493576833
12.650000000000045 7.7671439397869078
12.700000000000045 7.7883096776628022
12.750000000000046 7.8094642986353193
12.800000000000047 7.8306079601341079
12.850000000000048 7.8517408411676728
12.900000000000048 7.8728631420631894
12.950000000000049 7.8939750841500249
13.000000000000050 7.9150769093794677
13.050000000000050 7.9361688799043799
13.100000000000051 7.9572512776141231
13.150000000000052 7.9783244036271084
13.200000000000053 7.9993885777428968
13.250000000000053 8.0204441378699975
13.300000000000054 8.0414914394131127
13.350000000000055 8.0625308546387480
13.400000000000055 8.0835627720149237
13.450000000000056 8.1045875955266506
13.500000000000057 8.1256057439621934
13.550000000000058 8.1466176502000600
13.600000000000058 8.1676237604524342
13.650000000000059 8.1886245335116961
13.700000000000060 8.2096204399725536
13.750000000000060 8.2306119614477602
13.800000000000061 8.2515995897669132
13.850000000000062 8.2725838261696047
13.900000000000063 8.2935651804913473
13.950000000000063 8.3145441703456395
14.000000000000064 8.3355213202956531
14.050000000000065 8.3564971610438548
14.100000000000065 8.3774722286072869
14.150000000000066 8.3984470635027719
14.200000000000067 8.4194222099538170
14.250000000000068 8.4403982150857733
14.300000000000068 8.4613756281643564
14.350000000000069 8.4823549998296421
14.400000000000070 8.5033368813624115
14.450000000000070 8.5243218239817775
14.500000000000071 8.5453103781627711
14.550000000000072 8.5663030929849384
14.600000000000072 8.5873005155231272
14.650000000000073 8.6083031902747909
14.700000000000074 8.6293116586188976
14.750000000000075 8.6503264583293369
14.800000000000075 8.6713481231258864
14.850000000000076 8.6923771822705849
14.900000000000077 8.7134141602074084
14.950000000000077 8.7344595762619353
15.000000000000078 8.7555139443692518
15.050000000000079 8.7765777728664993
15.100000000000080 8.7976515643196489
15.150000000000080 8.8187358154006752
15.200000000000081 8.8398310168005150
15.250000000000082 8.8609376531880226
15.300000000000082 8.8820562032147468
15.350000000000083 8.9031871395344471
15.400000000000084 8.9243309288764578
15.450000000000085 8.9454880321286208
15.500000000000085 8.9666589044640848
15.550000000000086 8.9878439954709730
15.600000000000087 9.0090437493171613
15.650000000000087 9.0302586049087079
15.700000000000088 9.0514889960806926
15.750000000000089 9.0727353517711364
15.800000000000090 9.0939980962198970
15.850000000000090 9.1152776491453071
15.900000000000091 9.1365744259296360
15.950000000000092 9.1578888377991650
16.000000000000092 9.1792212919847493
16.050000000000093 9.2005721918764944
16.100000000000094 9.2219419371630256
16.150000000000095 9.2433309239561989
16.200000000000095 9.2647395448990437
16.250000000000096 9.2861681892568484
16.300000000000097 9.3076172429880248
16.350000000000097 9.3290870887980084
16.400000000000098 9.3505781061816400
16.450000000000099 9.3720906714357692
16.500000000000099 9.3936251576647045
16.550000000000100 9.4151819347725336
16.600000000000101 9.4367613694352013
16.650000000000102 9.4583638250621842
16.700000000000102 9.4799896617506683
16.750000000000103 9.5016392362261506
16.800000000000104 9.5233129017781604
16.850000000000104 9.5450110081956794
16.900000000000105 9.5667339016819231
16.950000000000106 9.5884819247871160
17.000000000000107 9.6102554163292169
17.050000000000107 9.6320547113226116
17.100000000000108 9.6538801408902248
17.150000000000109 9.6757320322022355
17.200000000000109 9.6976107084044418
17.250000000000110 9.7195164885469012
17.300000000000111 9.7414496875305581
17.350000000000112 9.7634106160381471
17.400000000000112 9.7853995804865033
17.450000000000113 9.8074168829696156
17.500000000000114 9.8294628212044710
17.550000000000114 9.8515376884826065
17.600000000000115 9.8736417736187683
17.650000000000116 9.8957753608914878
17.700000000000117 9.9179387299862967
17.750000000000117 9.9401321559337070
17.800000000000118 9.9623559090333345
17.850000000000119 9.9846102547751467
17.900000000000119 10.006895453747067
17.950000000000120 10.029211761533567
18.000000000000121 10.051559428600065
18.050000000000122 10.073938700152800
18.100000000000122 10.096349815992884
18.150000000000123 10.118793010349510
18.200000000000124 10.141268511697943
18.250000000000124 10.163776542555699
18.300000000000125 10.186317319254240
18.350000000000126 10.208891051710834
18.400000000000126 10.231497943158814
18.450000000000127 10.254138189886978
18.500000000000128 10.276811980936866
18.550000000000129 10.299519497805674
18.600000000000129 10.322260914128735
18.650000000000130 10.345036395352841
18.700000000000131 10.367846098400747
18.750000000000131 10.390690171337749
18.800000000000132 10.413568753025784
18.850000000000133 10.436481972783062
18.900000000000134 10.459429950053428
18.950000000000134 10.482412794072806
19.000000000000135 10.505430603553252
19.050000000000136 10.528483466382122
19.100000000000136 10.551571459333108
19.150000000000137 10.574694647801948
19.200000000000138 10.597853085565395
19.250000000000139 10.621046814566201
19.300000000000139 10.644275864727394
19.350000000000140 10.667540253799840
19.400000000000141 10.690839987242866
19.450000000000141 10.714175058136981
19.500000000000142 10.737545447142177
19.550000000000143 10.760951122483462
19.600000000000144 10.784392039989260
19.650000000000144 10.807868143154423
19.700000000000145 10.831379363257106
19.750000000000146 10.854925619503627
19.800000000000146 10.878506819207150
19.850000000000147 10.902122858024791
19.900000000000148 10.925773620205558
19.950000000000149 10.949458978879367
20.000000000000149 10.973178796389233
20.050000000000150 10.996932924625868
20.100000000000151 11.020721205408922
20.150000000000151 11.044543470880091
20.200000000000152 11.068399543914468
20.250000000000153 11.092289238555475
20.300000000000153 11.116212360440034
20.350000000000154 11.140168707251933
20.400000000000155 11.164158069177866
20.450000000000156 11.188180229342054
20.500000000000156 11.212234964267145
20.550000000000157 11.236322044299246
20.600000000000158 11.260441234046995
20.650000000000158 11.284592292790974
20.700000000000159 11.308774974889452
20.750000000000160 11.332989030156225
20.800000000000161 11.357234204218473
20.850000000000161 11.381510238865335
20.900000000000162 11.405816872355510
20.950000000000163 11.430153839714709
21.000000000000163 11.454520873005615
21.050000000000164 11.478917701568427
21.100000000000165 11.503344052233416
21.150000000000166 11.527799649530612
21.200000000000166 11.552284215849138
21.250000000000167 11.576797471597340
21.300000000000168 11.601339135335413
21.350000000000168 11.625908923889618
21.400000000000169 11.650506552456218
21.450000000000170 11.675131734690837
21.500000000000171 11.699784182782578
21.550000000000171 11.724463607533103
21.600000000000172 11.749169718431798
21.650000000000173 11.773902223715702
21.700000000000173 11.798660830449053
21.750000000000174 11.823445244598719
21.800000000000175 11.848255171111504
21.850000000000176 11.873090314028778
21.900000000000176 11.897950376576615
21.950000000000177 11.922835061301621
22.000000000000178 11.947744070204566
22.050000000000178 11.972677104905967
22.100000000000179 11.997633866814924
22.150000000000180 12.022614057338437
22.200000000000180 12.047617378089141
22.250000000000181 12.072643531127806
22.300000000000182 12.097692219222310
22.350000000000183 12.122763146122782
22.400000000000183 12.147856016857263
22.450000000000184 12.172970538034363
22.500000000000185 12.198106418173536
22.550000000000185 12.223263368040271
22.600000000000186 12.248441100984339
22.650000000000187 12.273639333292108
22.700000000000188 12.298857784541967
22.750000000000188 12.324096177946844
22.800000000000189 12.349354240709928
22.850000000000190 12.374631704365886
22.900000000000190 12.399928305110485
22.950000000000191 12.425243784110460
23.000000000000192 12.450577887820618
23.050000000000193 12.475930368244333
23.100000000000193 12.501300983207235
23.150000000000194 12.526689496578015
23.200000000000195 12.552095678476752
23.250000000000195 12.577519305454192
23.300000000000196 12.602960160627360
23.350000000000197 12.628418033790766
23.400000000000198 12.653892721497806
23.450000000000198 12.679384027094860
23.500000000000199 12.704891760745140
23.550000000000200 12.730415739381780
23.600000000000200 12.755955786660756
23.650000000000201 12.781511732869159
23.700000000000202 12.807083414800205
23.750000000000203 12.832670675605286
23.800000000000203 12.858273364603976
23.850000000000204 12.883891337091864
23.900000000000205 12.909524454119618
23.950000000000205 12.935172582235371
24.000000000000206 12.960835593230463
24.050000000000207 12.986513363880736
24.100000000000207 13.012205775633618
24.150000000000208 13.037912714347090
24.200000000000209 13.063634069982578
24.250000000000210 13.089369736314104
24.300000000000210 13.115119610640312
24.350000000000211 13.140883593498309
24.400000000000212 13.166661588392529
24.450000000000212 13.192453501519163
24.500000000000213 13.218259241529962
24.550000000000214 13.244078719276912
24.600000000000215 13.269911847605401
24.650000000000215 13.295758541147631
24.700000000000216 13.321618716141257
24.750000000000217 13.347492290271472
24.800000000000217 13.373379182524367
24.850000000000218 13.399279313073368
24.900000000000219 13.425192603175107
24.950000000000220 13.451118975098677
25.000000000000220 13.477058352064402
25.050000000000221 13.503010658207691
25.100000000000222 13.528975818567572
25.150000000000222 13.554953759079570
25.200000000000223 13.580944406580276
25.250000000000224 13.606947688866223
25.300000000000225 13.632963534715461
25.350000000000225 13.658991873949788
25.400000000000226 13.685032637502994
25.450000000000227 13.711085757495152
25.500000000000227 13.737151167312051
25.550000000000228 13.763228801700945
25.600000000000229 13.789318596843946
25.650000000000230 13.815420490460617
25.700000000000230 13.841534421899391
25.750000000000231 13.867660332228779
25.800000000000232 13.893798164318428
25.850000000000232 13.919947862928234
25.900000000000233 13.946109374784411
25.950000000000234 13.972282648654595
