# Long-range Heisenberg model
# L = 45, S_z^tot = -35/2, J = 1, Delta = 0.2, Alpha = 5.0
# Time dependence of center of mass, i.e. first density moment of <Sz_l(t)>
# time, center of mass

0.0000000000000000 3.0000000000000000
5.0000000000000003E-002 3.0001255090432419
0.10000000000000001 3.0005020289519613
0.15000000000000002 3.0011295381075347
0.20000000000000001 3.0020080006264394
0.25000000000000000 3.0031373665797352
0.29999999999999999 3.0045175722967130
0.34999999999999998 3.0061485407492214
0.39999999999999997 3.0080301820122251
0.44999999999999996 3.0101623937952842
0.49999999999999994 3.0125450620388650
0.54999999999999993 3.0151780615687889
0.59999999999999998 3.0180612568014316
0.65000000000000002 3.0211945024918463
0.70000000000000007 3.0245776445166919
0.75000000000000011 3.0282105206834533
0.80000000000000016 3.0320929615574430
0.85000000000000020 3.0362247912979718
0.90000000000000024 3.0406058284952313
0.95000000000000029 3.0452358869995786
1.0000000000000002 3.0501147767353474
1.0500000000000003 3.0552423044915629
1.1000000000000003 3.0606182746826249
1.1500000000000004 3.0662424900724545
1.2000000000000004 3.0721147524563497
1.2500000000000004 3.0782348632954886
1.3000000000000005 3.0846026242996758
1.3500000000000005 3.0912178379548849
1.4000000000000006 3.0980803079927250
1.4500000000000006 3.1051898397998783
1.5000000000000007 3.1125462407663274
1.5500000000000007 3.1201493205718025
1.6000000000000008 3.1279988914107584
1.6500000000000008 3.1360947681566684
1.7000000000000008 3.1444367684671009
1.7500000000000009 3.1530247128315114
1.8000000000000009 3.1618584245641363
1.8500000000000010 3.1709377297446357
1.9000000000000010 3.1802624571095270
1.9500000000000011 3.1898324378974352
2.0000000000000009 3.1996475056513645
2.0500000000000007 3.2097074959811613
2.1000000000000005 3.2200122462891274
2.1500000000000004 3.2305615954616513
2.2000000000000002 3.2413553835293922
2.2500000000000000 3.2523934512981554
2.2999999999999998 3.2636756399523055
2.3499999999999996 3.2752017906319697
2.3999999999999995 3.2869717439848438
2.4499999999999993 3.2989853396928734
2.4999999999999991 3.3112424159735294
2.5499999999999989 3.3237428090547945
2.5999999999999988 3.3364863526224862
2.6499999999999986 3.3494728772379587
2.6999999999999984 3.3627022097237127
2.7499999999999982 3.3761741725140406
2.7999999999999980 3.3898885829672594
2.8499999999999979 3.4038452526359393
2.8999999999999977 3.4180439864909991
2.9499999999999975 3.4324845820954750
2.9999999999999973 3.4471668287235770
3.0499999999999972 3.4620905064204623
3.0999999999999970 3.4772553849984162
3.1499999999999968 3.4926612229648737
3.1999999999999966 3.5083077663782403
3.2499999999999964 3.5241947476274693
3.2999999999999963 3.5403218841318638
3.3499999999999961 3.5566888769578089
3.3999999999999959 3.5732954093499001
3.4499999999999957 3.5901411451741487
3.4999999999999956 3.6072257272719055
3.5499999999999954 3.6245487757234800
3.5999999999999952 3.6421098860215166
3.6499999999999950 3.6599086271546057
3.6999999999999948 3.6779445396026302
3.7499999999999947 3.6962171332461273
3.7999999999999945 3.7147258851927303
3.8499999999999943 3.7334702375246240
3.8999999999999941 3.7524495949718433
3.9499999999999940 3.7716633225171967
3.9999999999999938 3.7911107429391078
4.0499999999999936 3.8107911342999228
4.0999999999999934 3.8307037273877826
4.1499999999999932 3.8508477031209596
4.1999999999999931 3.8712221899245058
4.2499999999999929 3.8918262610894305
4.2999999999999927 3.9126589321257375
4.3499999999999925 3.9337191581208475
4.3999999999999924 3.9550058311158494
4.4499999999999922 3.9765177775124272
4.4999999999999920 3.9982537555236024
4.5499999999999918 4.0202124526823360
4.5999999999999917 4.0423924834217111
4.6499999999999915 4.0647923867413862
4.6999999999999913 4.0874106239745487
4.7499999999999911 4.1102455766704038
4.7999999999999909 4.1332955446067112
4.8499999999999908 4.1565587439472829
4.8999999999999906 4.1800333055591139
4.9499999999999904 4.2037172735033375
4.9999999999999902 4.2276086037147840
5.0499999999999901 4.2517051628832796
5.0999999999999899 4.2760047275509008
5.1499999999999897 4.3005049834373397
5.1999999999999895 4.3252035250061382
5.2499999999999893 4.3500978552832805
5.2999999999999892 4.3751853859387042
5.3499999999999890 4.4004634376406973
5.3999999999999888 4.4259292406923505
5.4499999999999886 4.4515799359574002
5.4999999999999885 4.4774125760827186
5.5499999999999883 4.5034241270223712
5.5999999999999881 4.5296114698679357
5.6499999999999879 4.5559714029876766
5.6999999999999877 4.5825006444760081
5.7499999999999876 4.6091958349131605
5.7999999999999874 4.6360535404338012
5.8499999999999872 4.6630702561010615
5.8999999999999870 4.6902424095816242
5.9499999999999869 4.7175663651154629
5.9999999999999867 4.7450384277724238
6.0499999999999865 4.7726548479860718
6.0999999999999863 4.8004118263537441
6.1499999999999861 4.8283055186902688
6.1999999999999860 4.8563320413211910
6.2499999999999858 4.8844874765995892
6.2999999999999856 4.9127678786294640
6.3499999999999854 4.9411692791778119
6.3999999999999853 4.9696876937543069
6.4499999999999851 4.9983191278390757
6.4999999999999849 5.0270595832350633
6.5499999999999847 5.0559050645231389
6.5999999999999845 5.0848515855946799
6.6499999999999844 5.1138951762374889
6.6999999999999842 5.1430318887493414
6.7499999999999840 5.1722578045527658
6.7999999999999838 5.2015690407849684
6.8499999999999837 5.2309617568355486
6.8999999999999835 5.2604321608054390
6.9499999999999833 5.2899765158601211
6.9999999999999831 5.3195911464496630
7.0499999999999829 5.3492724443698760
7.0999999999999828 5.3790168746378129
7.1499999999999826 5.4088209811562749
7.1999999999999824 5.4386813921429864
7.2499999999999822 5.4685948252990650
7.2999999999999821 5.4985580926957400
7.3499999999999819 5.5285681053559204
7.3999999999999817 5.5586218775107143
7.4499999999999815 5.5887165305118991
7.4999999999999813 5.6188492963821517
7.5499999999999812 5.6490175209874378
7.5999999999999810 5.6792186668168947
7.6499999999999808 5.7094503153581693
7.6999999999999806 5.7397101690573855
7.7499999999999805 5.7699960528547205
7.7999999999999803 5.8003059152903171
7.8499999999999801 5.8306378291743863
7.8999999999999799 5.8609899918209614
7.9499999999999797 5.8913607248442013
7.9999999999999796 5.9217484735193979
8.0499999999999794 5.9521518057137346
8.0999999999999801 5.9825694103926326
8.1499999999999808 6.0130000957113507
8.1999999999999815 6.0434427867016369
8.2499999999999822 6.0738965225674137
8.2999999999999829 6.1043604536041727
8.3499999999999837 6.1348338377596425
8.3999999999999844 6.1653160368536852
8.4499999999999851 6.1958065124794244
8.4999999999999858 6.2263048216072150
8.5499999999999865 6.2568106119153821
8.5999999999999872 6.2873236168736710
8.6499999999999879 6.3178436506056386
8.6999999999999886 6.3483706025579529
8.7499999999999893 6.3789044320046138
8.7999999999999901 6.4094451624166906
8.8499999999999908 6.4399928757266816
8.8999999999999915 6.4705477065179622
8.9499999999999922 6.5011098361704951
8.9999999999999929 6.5316794869930179
9.0499999999999936 6.5622569163722213
9.0999999999999943 6.5928424109691184
9.1499999999999950 6.6234362809926504
9.1999999999999957 6.6540388545781743
9.2499999999999964 6.6846504723000599
9.2999999999999972 6.7152714818448231
9.3499999999999979 6.7459022328706020
9.3999999999999986 6.7765430720761799
9.4499999999999993 6.8071943385042095
9.5000000000000000 6.8378563590977457
9.5500000000000007 6.8685294445309513
9.6000000000000014 6.8992138853304477
9.6500000000000021 6.9299099483020496
9.7000000000000028 6.9606178732781050
9.7500000000000036 6.9913378701948057
9.8000000000000043 7.0220701165093082
9.8500000000000050 7.0528147549630127
9.9000000000000057 7.0835718916958790
9.9500000000000064 7.1143415947133759
10.000000000000007 7.1451238927072422
10.050000000000008 7.1759187742266253
10.100000000000009 7.2067261871958079
10.150000000000009 7.2375460387717405
10.200000000000010 7.2683781955337219
10.250000000000011 7.2992224839938107
10.300000000000011 7.3300786914156921
10.350000000000012 7.3609465669281748
10.400000000000013 7.3918258229181317
10.450000000000014 7.4227161366840679
10.500000000000014 7.4536171523334041
10.550000000000015 7.4845284829028342
10.600000000000016 7.5154497126799811
10.650000000000016 7.5463803997059573
10.700000000000017 7.5773200784356041
10.750000000000018 7.6082682625314177
10.800000000000018 7.6392244477690934
10.850000000000019 7.6701881150286617
10.900000000000020 7.7011587333489455
10.950000000000021 7.7321357630205716
11.000000000000021 7.7631186586936245
11.050000000000022 7.7941068724771982
11.100000000000023 7.8250998570068164
11.150000000000023 7.8560970684593157
11.200000000000024 7.8870979694928423
11.250000000000025 7.9181020320903244
11.300000000000026 7.9491087402913081
11.350000000000026 7.9801175927890418
11.400000000000027 8.0111281053793739
11.450000000000028 8.0421398132450399
11.500000000000028 8.0731522730634619
11.550000000000029 8.1041650649223307
11.600000000000030 8.1351777940350640
11.650000000000031 8.1661900922476445
11.700000000000031 8.1972016193272772
11.750000000000032 8.2282120640307994
11.800000000000033 8.2592211449457338
11.850000000000033 8.2902286111048600
11.900000000000034 8.3212342423737429
11.950000000000035 8.3522378496109706
12.000000000000036 8.3832392746074493
12.050000000000036 8.4142383898066466
12.100000000000037 8.4452350978143169
12.150000000000038 8.4762293307054453
12.200000000000038 8.5072210491370743
12.250000000000039 8.5382102412771435
12.300000000000040 8.5691969215632007
12.350000000000041 8.6001811293024595
12.400000000000041 8.6311629271269705
12.450000000000042 8.6621423993202704
12.500000000000043 8.6931196500276684
12.550000000000043 8.7240948013714199
12.600000000000044 8.7550679914823490
12.650000000000045 8.7860393724670462
12.700000000000045 8.8170091083278539
12.750000000000046 8.8479773728527373
12.800000000000047 8.8789443474903091
12.850000000000048 8.9099102192292410
12.900000000000048 8.9408751784964142
12.950000000000049 8.9718394170926246
13.000000000000050 9.0028031261765520
13.050000000000050 9.0337664943163780
13.100000000000051 9.0647297056208895
13.150000000000052 9.0956929379628981
13.200000000000053 9.1266563613071643
13.250000000000053 9.1576201361538807
13.300000000000054 9.1885844121085931
13.350000000000055 9.2195493265849926
13.400000000000055 9.2505150036499781
13.450000000000056 9.2814815530165671
13.500000000000057 9.3124490691882116
13.550000000000058 9.3434176307610279
13.600000000000058 9.3743872998823452
13.650000000000059 9.4053581218698721
13.700000000000060 9.4363301249891425
13.750000000000060 9.4673033203871757
13.800000000000061 9.4982777021827332
13.850000000000062 9.5292532477039416
13.900000000000063 9.5602299178717729
13.950000000000063 9.5912076577226344
14.000000000000064 9.6221863970620216
14.050000000000065 9.6531660512390918
14.100000000000065 9.6841465220386684
14.150000000000066 9.7151276986731858
14.200000000000067 9.7461094588709827
14.250000000000068 9.7770916700455341
14.300000000000068 9.8080741905358693
14.350000000000069 9.8390568709051642
14.400000000000070 9.8700395552861284
14.450000000000070 9.9010220827613580
14.500000000000071 9.9320042887642401
14.550000000000072 9.9629860064900821
14.600000000000072 9.9939670683047250
14.650000000000073 10.024947307137237
14.700000000000074 10.055926557847718
14.750000000000075 10.086904658556371
14.800000000000075 10.117881451925760
14.850000000000076 10.148856786384226
14.900000000000077 10.179830517280669
14.950000000000077 10.210802507964836
15.000000000000078 10.241772630782551
15.050000000000079 10.272740767980423
15.100000000000080 10.303706812513147
15.150000000000080 10.334670668748672
15.200000000000081 10.365632253066794
15.250000000000082 10.396591494347867
15.300000000000082 10.427548334350181
15.350000000000083 10.458502727974258
15.400000000000084 10.489454643412383
15.450000000000085 10.520404062187545
15.500000000000085 10.551350979079871
15.550000000000086 10.582295401944894
15.600000000000087 10.613237351427587
15.650000000000087 10.644176860574806
15.700000000000088 10.675113974353684
15.750000000000089 10.706048749078484
15.800000000000090 10.736981251755635
15.850000000000090 10.767911559352070
15.900000000000091 10.798839757995644
15.950000000000092 10.829765942114621
16.000000000000092 10.860690213525169
16.050000000000093 10.891612680476801
16.100000000000094 10.922533456662752
16.150000000000095 10.953452660205494
16.200000000000095 10.984370412626438
16.250000000000096 11.015286837810020
16.300000000000097 11.046202060968630
16.350000000000097 11.077116207620010
16.400000000000098 11.108029402585046
16.450000000000099 11.138941769013030
16.500000000000099 11.169853427443483
16.550000000000100 11.200764494912081
16.600000000000101 11.231675084107199
16.650000000000102 11.262585302584613
16.700000000000102 11.293495252043011
16.750000000000103 11.324405027670492
16.800000000000104 11.355314717561997
16.850000000000104 11.386224402214017
16.900000000000105 11.417134154098852
16.950000000000106 11.448044037320170
17.000000000000107 11.478954107353026
17.050000000000107 11.509864410867801
17.100000000000108 11.540774985637418
17.150000000000109 11.571685860529033
17.200000000000109 11.602597055578517
17.250000000000110 11.633508582143580
17.300000000000111 11.664420443134622
17.350000000000112 11.695332633320266
17.400000000000112 11.726245139700678
17.450000000000113 11.757157941948531
17.500000000000114 11.788071012908544
17.550000000000114 11.818984319151937
17.600000000000115 11.849897821579123
17.650000000000116 11.880811476065963
17.700000000000117 11.911725234145219
17.750000000000117 11.942639043716936
17.800000000000118 11.973552849781695
17.850000000000119 12.004466595188674
17.900000000000119 12.035380221392325
17.950000000000120 12.066293669210577
18.000000000000121 12.097206879576415
18.050000000000122 12.128119794278962
18.100000000000122 12.159032356684692
18.150000000000123 12.189944512433389
18.200000000000124 12.220856210104229
18.250000000000124 12.251767401845095
18.300000000000125 12.282678043960408
18.350000000000126 12.313588097452612
18.400000000000126 12.344497528513996
18.450000000000127 12.375406308963150
18.500000000000128 12.406314416626484
18.550000000000129 12.437221835657891
18.600000000000129 12.468128556798245
18.650000000000130 12.499034577571372
18.700000000000131 12.529939902415760
18.750000000000131 12.560844542753758
18.800000000000132 12.591748516994404
18.850000000000133 12.622651850476243
18.900000000000134 12.653554575347432
18.950000000000134 12.684456730386511
19.000000000000135 12.715358360767292
19.050000000000136 12.746259517768888
19.100000000000136 12.777160258435860
19.150000000000137 12.808060645193521
19.200000000000138 12.838960745416879
19.250000000000139 12.869860630966693
19.300000000000139 12.900760377688803
19.350000000000140 12.931660064887605
19.400000000000141 12.962559774775814
19.450000000000141 12.993459591907136
19.500000000000142 13.024359602597157
19.550000000000143 13.055259894337464
19.600000000000144 13.086160555207591
19.650000000000144 13.117061673293305
19.700000000000145 13.147963336113071
19.750000000000146 13.178865630058878
19.800000000000146 13.209768639856412
19.850000000000147 13.240672448050100
19.900000000000148 13.271577134515240
19.950000000000149 13.302482776003512
20.000000000000149 13.333389445724709
20.050000000000150 13.364297212965857
20.100000000000151 13.395206142754976
20.150000000000151 13.426116295566814
20.200000000000152 13.457027727078183
20.250000000000153 13.487940487968952
20.300000000000153 13.518854623772766
20.350000000000154 13.549770174778921
20.400000000000155 13.580687175982604
20.450000000000156 13.611605657086018
20.500000000000156 13.642525642547518
20.550000000000157 13.673447151678854
20.600000000000158 13.704370198789418
20.650000000000158 13.735294793373445
20.700000000000159 13.766220940338725
20.750000000000160 13.797148640275632
20.800000000000161 13.828077889761280
20.850000000000161 13.859008681696110
20.900000000000162 13.889941005669884
20.950000000000163 13.920874848352415
21.000000000000163 13.951810193906008
21.050000000000164 13.982747024414474
21.100000000000165 14.013685320325235
21.150000000000166 14.044625060899786
21.200000000000166 14.075566224668114
21.250000000000167 14.106508789884076
21.300000000000168 14.137452734974936
21.350000000000168 14.168398038983646
21.400000000000169 14.199344681998227
21.450000000000170 14.230292645564599
21.500000000000171 14.261241913080420
21.550000000000171 14.292192470164416
21.600000000000172 14.323144305000442
21.650000000000173 14.354097408651652
21.700000000000173 14.385051775342722
21.750000000000174 14.416007402708841
21.800000000000175 14.446964292007623
21.850000000000176 14.477922448295271
21.900000000000176 14.508881880562807
21.950000000000177 14.539842601833534
22.000000000000178 14.570804629221556
22.050000000000178 14.601767983949550
22.100000000000179 14.632732691327748
22.150000000000180 14.663698780694533
22.200000000000180 14.694666285318920
22.250000000000181 14.725635242267543
22.300000000000182 14.756605692237130
22.350000000000183 14.787577679353927
22.400000000000183 14.818551250944093
22.450000000000184 14.849526457275504
22.500000000000185 14.880503351275475
22.550000000000185 14.911481988226370
22.600000000000186 14.942462425442615
22.650000000000187 14.973444721931658
22.700000000000188 15.004428938044043
22.750000000000188 15.035415135113652
22.800000000000189 15.066403375093790
22.850000000000190 15.097393720189796
22.900000000000190 15.128386232496151
22.950000000000191 15.159380973635805
23.000000000000192 15.190378004409855
23.050000000000193 15.221377384457405
23.100000000000193 15.252379171931784
23.150000000000194 15.283383423192312
23.200000000000195 15.314390192517163
23.250000000000195 15.345399531838485
23.300000000000196 15.376411490502683
23.350000000000197 15.407426115056403
23.400000000000198 15.438443449061703
23.450000000000198 15.469463532940537
23.500000000000199 15.500486403849296
23.550000000000200 15.531512095586040
23.600000000000200 15.562540638529098
23.650000000000201 15.593572059607816
23.700000000000202 15.624606382305092
23.750000000000203 15.655643626691775
23.800000000000203 15.686683809492102
23.850000000000204 15.717726944177818
23.900000000000205 15.748773041092601
23.950000000000205 15.779822107601566
24.000000000000206 15.810874148267844
24.050000000000207 15.841929165050587
24.100000000000207 15.872987157525912
24.150000000000208 15.904048123124879
24.200000000000209 15.935112057389050
24.250000000000210 15.966178954238480
24.300000000000210 15.997248806252088
24.350000000000211 16.028321604954524
24.400000000000212 16.059397341109477
24.450000000000212 16.090476005015141
24.500000000000213 16.121557586798961
24.550000000000214 16.152642076709881
24.600000000000215 16.183729465404411
24.650000000000215 16.214819744223430
24.700000000000216 16.245912905459715
24.750000000000217 16.277008942609758
24.800000000000217 16.308107850612195
24.850000000000218 16.339209626065944
24.900000000000219 16.370314267431510
24.950000000000220 16.401421775209233
25.000000000000220 16.432532152094396
25.050000000000221 16.463645403110320
25.100000000000222 16.494761535714613
25.150000000000222 16.525880559881145
25.200000000000223 16.557002488155014
25.250000000000224 16.588127335681808
25.300000000000225 16.619255120210209
25.350000000000225 16.650385862068553
25.400000000000226 16.681519584116614
25.450000000000227 16.712656311671335
25.500000000000227 16.743796072410166
25.550000000000228 16.774938896250717
25.600000000000229 16.806084815211097
25.650000000000230 16.837233863247889
25.700000000000230 16.868386076078451
25.750000000000231 16.899541490987403
25.800000000000232 16.930700146617319
25.850000000000232 16.961862082749960
25.900000000000233 16.993027340076193
25.950000000000234 17.024195959959648
