# Long-range Heisenberg model
# L = 45, S_z^tot = -35/2, J = 1, Delta = 0.2, Alpha = 4.0
# Time dependence of center of mass, i.e. first density moment of <Sz_l(t)>
# time, center of mass

0.0000000000000000 3.0000000000000000
5.0000000000000003E-002 3.0001271657917949
0.10000000000000001 3.0005086526451663
0.15000000000000002 3.0011444290820943
0.20000000000000001 3.0020344429314703
0.25000000000000000 3.0031786217636673
0.29999999999999999 3.0045768734913771
0.34999999999999998 3.0062290871291717
0.39999999999999997 3.0081351337025652
0.44999999999999996 3.0102948672952179
0.49999999999999994 3.0127081262216349
0.54999999999999993 3.0153747343110249
0.59999999999999998 3.0182945022869392
0.65000000000000002 3.0214672292261455
0.70000000000000007 3.0248927040796816
0.75000000000000011 3.0285707072382348
0.80000000000000016 3.0325010121239848
0.85000000000000020 3.0366833867909984
0.90000000000000024 3.0411175955163943
0.95000000000000029 3.0458034003652159
1.0000000000000002 3.0507405627124831
1.0500000000000003 3.0559288447069730
1.1000000000000003 3.0613680106623886
1.1500000000000004 3.0670578283628442
1.2000000000000004 3.0729980702711495
1.2500000000000004 3.0791885146299083
1.3000000000000005 3.0856289464471121
1.3500000000000005 3.0923191583597611
1.4000000000000006 3.0992589513706394
1.4500000000000006 3.1064481354554023
1.5000000000000007 3.1138865300385752
1.5500000000000007 3.1215739643390941
1.6000000000000008 3.1295102775873436
1.6500000000000008 3.1376953191173382
1.7000000000000008 3.1461289483389416
1.7500000000000009 3.1548110345963307
1.8000000000000009 3.1637414569198783
1.8500000000000010 3.1729201036794987
1.9000000000000010 3.1823468721482646
1.9500000000000011 3.1920216679853959
2.0000000000000009 3.2019444046481667
2.0500000000000007 3.2121150027422307
2.1000000000000005 3.2225333893197647
2.1500000000000004 3.2331994971345073
2.2000000000000002 3.2441132638623249
2.2500000000000000 3.2552746312952054
2.2999999999999998 3.2666835445158622
2.3499999999999996 3.2783399510591225
2.3999999999999995 3.2902438000653986
2.4499999999999993 3.3023950414302359
2.4999999999999991 3.3147936249530390
2.5499999999999989 3.3274394994866037
2.5999999999999988 3.3403326120881554
2.6499999999999986 3.3534729071712230
2.6999999999999984 3.3668603256566918
2.7499999999999982 3.3804948041201555
2.7999999999999980 3.3943762739318366
2.8499999999999979 3.4085046603843985
2.8999999999999977 3.4228798818030852
2.9499999999999975 3.4375018486321762
2.9999999999999973 3.4523704624909919
3.0499999999999972 3.4674856151925821
3.0999999999999970 3.4828471877176290
3.1499999999999968 3.4984550491364401
3.1999999999999966 3.5143090554716792
3.2499999999999964 3.5304090484947852
3.2999999999999963 3.5467548544494298
3.3499999999999961 3.5633462826958695
3.3999999999999959 3.5801831242705489
3.4499999999999957 3.5972651503562569
3.4999999999999956 3.6145921106586516
3.5499999999999954 3.6321637316863726
3.5999999999999952 3.6499797149323983
3.6499999999999950 3.6680397349557938
3.6999999999999948 3.6863434373639450
3.7499999999999947 3.7048904366964943
3.7999999999999945 3.7236803142133930
3.8499999999999943 3.7427126155905550
3.8999999999999941 3.7619868485280237
3.9499999999999940 3.7815024802761696
3.9999999999999938 3.8012589350873069
4.0499999999999936 3.8212555916002988
4.0999999999999934 3.8414917801676154
4.1499999999999932 3.8619667801344941
4.1999999999999931 3.8826798170814851
4.2499999999999929 3.9036300600417788
4.2999999999999927 3.9248166187062363
4.3499999999999925 3.9462385406289759
4.3999999999999924 3.9678948084478587
4.4499999999999922 3.9897843371338522
4.4999999999999920 4.0119059712844161
4.5499999999999918 4.0342584824762611
4.5999999999999917 4.0568405666929541
4.6499999999999915 4.0796508418432662
4.6999999999999913 4.1026878453863205
4.7499999999999911 4.1259500320795839
4.7999999999999909 4.1494357718657868
4.8499999999999908 4.1731433479146265
4.8999999999999906 4.1970709548352483
4.9499999999999904 4.2212166970748299
4.9999999999999902 4.2455785875185006
5.0499999999999901 4.2701545463052639
5.0999999999999899 4.2949423998741842
5.1499999999999897 4.3199398802541911
5.1999999999999895 4.3451446246105876
5.2499999999999893 4.3705541750598282
5.2999999999999892 4.3961659787642269
5.3499999999999890 4.4219773883161020
5.3999999999999888 4.4479856624207956
5.4499999999999886 4.4741879668861699
5.4999999999999885 4.5005813759251367
5.5499999999999883 4.5271628737765424
5.5999999999999881 4.5539293566481724
5.6499999999999879 4.5808776349842057
5.6999999999999877 4.6080044360577004
5.7499999999999876 4.6353064068878451
5.7999999999999874 4.6627801174787802
5.8499999999999872 4.6904220643764205
5.8999999999999870 4.7182286745372561
5.9499999999999869 4.7461963095015580
5.9999999999999867 4.7743212698617512
6.0499999999999865 4.8025998000151828
6.0999999999999863 4.8310280931885279
6.1499999999999861 4.8596022967193777
6.1999999999999860 4.8883185175797159
6.2499999999999858 4.9171728281234390
6.2999999999999856 4.9461612720392711
6.3499999999999854 4.9752798704889853
6.3999999999999853 5.0045246284092348
6.4499999999999851 5.0338915409546434
6.4999999999999849 5.0633766000582403
6.5499999999999847 5.0929758010845259
6.5999999999999845 5.1226851495501089
6.6499999999999844 5.1525006678852661
6.6999999999999842 5.1824184022098887
6.7499999999999840 5.2124344290969180
6.7999999999999838 5.2425448622956425
6.8499999999999837 5.2727458593871761
6.8999999999999835 5.3030336283453217
6.9499999999999833 5.3334044339743762
6.9999999999999831 5.3638546041980648
7.0499999999999829 5.3943805361719681
7.0999999999999828 5.4249787021941493
7.1499999999999826 5.4556456553883983
7.1999999999999824 5.4863780351356759
7.2499999999999822 5.5171725722303622
7.2999999999999821 5.5480260937390433
7.3499999999999819 5.5789355275405601
7.3999999999999817 5.6098979065276069
7.4499999999999815 5.6409103724519012
7.4999999999999813 5.6719701793952995
7.5499999999999812 5.7030746968526715
7.5999999999999810 5.7342214124125244
7.6499999999999808 5.7654079340239051
7.6999999999999806 5.7966319918403650
7.7499999999999805 5.8278914396321673
7.7999999999999803 5.8591842557622460
7.8499999999999801 5.8905085437213058
7.8999999999999799 5.9218625322210068
7.9499999999999797 5.9532445748455567
7.9999999999999796 5.9846531492647523
8.0499999999999794 6.0160868560128788
8.0999999999999801 6.0475444168407453
8.1499999999999808 6.0790246726501813
8.1999999999999815 6.1105265810221052
8.2499999999999822 6.1420492133517346
8.2999999999999829 6.1735917516057839
8.3499999999999837 6.2051534847200456
8.3999999999999844 6.2367338046556871
8.4499999999999851 6.2683322021357029
8.4999999999999858 6.2999482620842118
8.5499999999999865 6.3315816587930831
8.5999999999999872 6.3632321508412071
8.6499999999999879 6.3948995757940370
8.6999999999999886 6.4265838447112928
8.7499999999999893 6.4582849364920163
8.7999999999999901 6.4900028920870030
8.8499999999999908 6.5217378086096573
8.8999999999999915 6.5534898333757825
8.9499999999999922 6.5852591579042068
8.9999999999999929 6.6170460119094932
9.0499999999999936 6.6488506573179311
9.0999999999999943 6.6806733823384370
9.1499999999999950 6.7125144956179330
9.1999999999999957 6.7443743205119580
9.2499999999999964 6.7762531894983660
9.2999999999999972 6.8081514387631952
9.3499999999999979 6.8400694029840761
9.3999999999999986 6.8720074103371580
9.4499999999999993 6.9039657777500869
9.5000000000000000 6.9359448064242706
9.5500000000000007 6.9679447776449654
9.6000000000000014 6.9999659488980130
9.6500000000000021 7.0320085503089809
9.7000000000000028 7.0640727814175248
9.7500000000000036 7.0961588083001033
9.8000000000000043 7.1282667610482919
9.8500000000000050 7.1603967316111143
9.9000000000000057 7.1925487720041215
9.9500000000000064 7.2247228928891563
10.000000000000007 7.2569190625225657
10.050000000000008 7.2891372060711257
10.100000000000009 7.3213772052880435
10.150000000000009 7.3536388985449666
10.200000000000010 7.3859220812080828
10.250000000000011 7.4182265063481836
10.300000000000011 7.4505518857707456
10.350000000000012 7.4828978913506452
10.400000000000013 7.5152641566551557
10.450000000000014 7.5476502788356621
10.500000000000014 7.5800558207686501
10.550000000000015 7.6124803134245731
10.600000000000016 7.6449232584415316
10.650000000000016 7.6773841308810500
10.700000000000017 7.7098623821411509
10.750000000000018 7.7423574430021000
10.800000000000018 7.7748687267797623
10.850000000000019 7.8073956325598672
10.900000000000020 7.8399375484890941
10.950000000000021 7.8724938550961809
11.000000000000021 7.9050639286185760
11.050000000000022 7.9376471443096763
11.100000000000023 7.9702428797015887
11.150000000000023 8.0028505178012832
11.200000000000024 8.0354694501966364
11.250000000000025 8.0680990800514234
11.300000000000026 8.1007388249689214
11.350000000000026 8.1333881197049855
11.400000000000027 8.1660464187137816
11.450000000000028 8.1987131985095498
11.500000000000028 8.2313879598302613
11.550000000000029 8.2640702295916793
11.600000000000030 8.2967595626198936
11.650000000000031 8.3294555431530739
11.700000000000031 8.3621577861081491
11.750000000000032 8.3948659381035142
11.800000000000033 8.4275796782379526
11.850000000000033 8.4602987186222496
11.900000000000034 8.4930228046650829
11.950000000000035 8.5257517151160904
12.000000000000036 8.5584852618691514
12.050000000000036 8.5912232895333016
12.100000000000037 8.6239656747776738
12.150000000000038 8.6567123254612000
12.200000000000038 8.6894631795565225
12.250000000000039 8.7222182038813365
12.300000000000040 8.7549773926499608
12.350000000000041 8.7877407658600610
12.400000000000041 8.8205083675305644
12.450000000000042 8.8532802638063153
12.500000000000043 8.8860565409471288
12.550000000000043 8.9188373032201369
12.600000000000044 8.9516226707121493
12.650000000000045 8.9844127770815945
12.700000000000045 9.0172077672684612
12.750000000000046 9.0500077951806368
12.800000000000047 9.0828130213769711
12.850000000000048 9.1156236107618707
12.900000000000048 9.1484397303134308
12.950000000000049 9.1812615468593926
13.000000000000050 9.2140892249184692
13.050000000000050 9.2469229246228117
13.100000000000051 9.2797627997373890
13.150000000000052 9.3126089957870875
13.200000000000053 9.3454616483085502
13.250000000000053 9.3783208812343997
13.300000000000054 9.4111868054217620
13.350000000000055 9.4440595173342494
13.400000000000055 9.4769390978836423
13.450000000000056 9.5098256114381439
13.500000000000057 9.5427191050020337
13.550000000000058 9.5756196075681057
13.600000000000058 9.6085271296473120
13.650000000000059 9.6414416629727544
13.700000000000060 9.6743631803790677
13.750000000000060 9.7072916358536272
13.800000000000061 9.7402269647548287
13.850000000000062 9.7731690841937731
13.900000000000063 9.8061178935716882
13.950000000000063 9.8390732752651537
14.000000000000064 9.8720350954511353
14.050000000000065 9.9050032050612593
14.100000000000065 9.9379774408554411
14.150000000000066 9.9709576266026367
14.200000000000067 10.003943574356862
14.250000000000068 10.036935085815553
14.300000000000068 10.069931953747538
14.350000000000069 10.102933963476254
14.400000000000070 10.135940894405842
14.450000000000070 10.168952521573750
14.500000000000071 10.201968617219244
14.550000000000072 10.234988952351026
14.600000000000072 10.268013298302499
14.650000000000073 10.301041428260648
14.700000000000074 10.334073118755876
14.750000000000075 10.367108151100920
14.800000000000075 10.400146312767660
14.850000000000076 10.433187398689265
14.900000000000077 10.466231212480634
14.950000000000077 10.499277567565588
15.000000000000078 10.532326288203670
15.050000000000079 10.565377210409908
15.100000000000080 10.598430182760085
15.150000000000080 10.631485067078366
15.200000000000081 10.664541739001542
15.250000000000082 10.697600088418669
15.300000000000082 10.730660019783402
15.350000000000083 10.763721452298688
15.400000000000084 10.796784319975758
15.450000000000085 10.829848571566284
15.500000000000085 10.862914170373731
15.550000000000086 10.895981093945451
15.600000000000087 10.929049333650104
15.650000000000087 10.962118894148352
15.700000000000088 10.995189792760989
15.750000000000089 11.028262058741287
15.800000000000090 11.061335732463215
15.850000000000090 11.094410864529818
15.900000000000091 11.127487514812865
15.950000000000092 11.160565751433815
16.000000000000092 11.193645649695490
16.050000000000093 11.226727290973475
16.100000000000094 11.259810761579166
16.150000000000095 11.292896151604799
16.200000000000095 11.325983553760306
16.250000000000096 11.359073062212000
16.300000000000097 11.392164771434878
16.350000000000097 11.425258775086018
16.400000000000098 11.458355164910387
16.450000000000099 11.491454029688066
16.500000000000099 11.524555454230667
16.550000000000100 11.557659518434773
16.600000000000101 11.590766296400886
16.650000000000102 11.623875855624071
16.700000000000102 11.656988256261052
16.750000000000103 11.690103550481037
16.800000000000104 11.723221781903172
16.850000000000104 11.756342985123872
16.900000000000105 11.789467185337219
16.950000000000106 11.822594398051425
17.000000000000107 11.855724628899482
17.050000000000107 11.888857873546391
17.100000000000108 11.921994117690749
17.150000000000109 11.955133337160213
17.200000000000109 11.988275498096959
17.250000000000110 12.021420557231583
17.300000000000111 12.054568462239651
17.350000000000112 12.087719152177668
17.400000000000112 12.120872557992886
17.450000000000113 12.154028603100295
17.500000000000114 12.187187204021312
17.550000000000114 12.220348271076928
17.600000000000115 12.253511709128253
17.650000000000116 12.286677418357433
17.700000000000117 12.319845295079203
17.750000000000117 12.353015232578123
17.800000000000118 12.386187121960551
17.850000000000119 12.419360853016379
17.900000000000119 12.452536315078444
17.950000000000120 12.485713397876273
18.000000000000121 12.518891992373806
18.050000000000122 12.552071991582736
18.100000000000122 12.585253291347902
18.150000000000123 12.618435791094880
18.200000000000124 12.651619394534549
18.250000000000124 12.684804010319205
18.300000000000125 12.717989552643937
18.350000000000126 12.751175941791107
18.400000000000126 12.784363104609325
18.450000000000127 12.817550974927808
18.500000000000128 12.850739493902600
18.550000000000129 12.883928610288669
18.600000000000129 12.917118280643088
18.650000000000130 12.950308469451416
18.700000000000131 12.983499149183634
18.750000000000131 13.016690300274627
18.800000000000132 13.049881911035724
18.850000000000133 13.083073977494726
18.900000000000134 13.116266503169818
18.950000000000134 13.149459498778718
19.000000000000135 13.182652981888348
19.050000000000136 13.215846976507160
19.100000000000136 13.249041512627045
19.150000000000137 13.282236625717637
19.200000000000138 13.315432356179725
19.250000000000139 13.348628748762366
19.300000000000139 13.381825851951534
19.350000000000140 13.415023717333796
19.400000000000141 13.448222398943244
19.450000000000141 13.481421952597152
19.500000000000142 13.514622435226128
19.550000000000143 13.547823904207203
19.600000000000144 13.581026416702342
19.650000000000144 13.614230029011964
19.700000000000145 13.647434795947545
19.750000000000146 13.680640770228658
19.800000000000146 13.713848001910540
19.850000000000147 13.747056537845900
19.900000000000148 13.780266421186919
19.950000000000149 13.813477690929773
20.000000000000149 13.846690381506585
20.050000000000150 13.879904522427998
20.100000000000151 13.913120137976831
20.150000000000151 13.946337246958455
20.200000000000152 13.979555862505775
20.250000000000153 14.012775991942853
20.300000000000153 14.045997636704604
20.350000000000154 14.079220792315480
20.400000000000155 14.112445448424426
20.450000000000156 14.145671588894826
20.500000000000156 14.178899191950810
20.550000000000157 14.212128230372556
20.600000000000158 14.245358671742952
20.650000000000158 14.278590478740423
20.700000000000159 14.311823609473588
20.750000000000160 14.345058017855358
20.800000000000161 14.378293654013751
20.850000000000161 14.411530464730500
20.900000000000162 14.444768393907946
20.950000000000163 14.478007383056429
21.000000000000163 14.511247371798465
21.050000000000164 14.544488298383655
21.100000000000165 14.577730100211191
21.150000000000166 14.610972714352119
21.200000000000166 14.644216078070341
21.250000000000167 14.677460129332701
21.300000000000168 14.710704807307545
21.350000000000168 14.743950052845694
21.400000000000169 14.777195808938339
21.450000000000170 14.810442021149518
21.500000000000171 14.843688638019483
21.550000000000171 14.876935611433804
21.600000000000172 14.910182896957457
21.650000000000173 14.943430454128823
21.700000000000173 14.976678246713885
21.750000000000174 15.009926242915645
21.800000000000175 15.043174415541666
21.850000000000176 15.076422742123842
21.900000000000176 15.109671204993516
21.950000000000177 15.142919791310637
22.000000000000178 15.176168493046728
22.050000000000178 15.209417306923314
22.100000000000179 15.242666234306467
22.150000000000180 15.275915281058946
22.200000000000180 15.309164457352965
22.250000000000181 15.342413777444056
22.300000000000182 15.375663259410794
22.350000000000183 15.408912924861337
22.400000000000183 15.442162798610880
22.450000000000184 15.475412908333967
22.500000000000185 15.508663284194599
22.550000000000185 15.541913958458117
22.600000000000186 15.575164965088369
22.650000000000187 15.608416339335532
22.700000000000188 15.641668117316879
22.750000000000188 15.674920335595280
22.800000000000189 15.708173030760722
22.850000000000190 15.741426239016235
22.900000000000190 15.774679995774589
22.950000000000191 15.807934335267536
23.000000000000192 15.841189290172597
23.050000000000193 15.874444891260428
23.100000000000193 15.907701167064344
23.150000000000194 15.940958143577745
23.200000000000195 15.974215843978509
23.250000000000195 16.007474288386263
23.300000000000196 16.040733493650787
23.350000000000197 16.073993473176419
23.400000000000198 16.107254236782008
23.450000000000198 16.140515790596329
23.500000000000199 16.173778136992606
23.550000000000200 16.207041274558591
23.600000000000200 16.240305198104988
23.650000000000201 16.273569898709663
23.700000000000202 16.306835363798623
23.750000000000203 16.340101577260270
23.800000000000203 16.373368519593207
23.850000000000204 16.406636168085406
23.900000000000205 16.439904497021590
23.950000000000205 16.473173477917978
24.000000000000206 16.506443079781011
24.050000000000207 16.539713269386873
24.100000000000207 16.572984011579894
24.150000000000208 16.606255269585496
24.200000000000209 16.639527005336102
24.250000000000210 16.672799179804397
24.300000000000210 16.706071753343650
24.350000000000211 16.739344686028794
24.400000000000212 16.772617937996795
24.450000000000212 16.805891469783052
24.500000000000213 16.839165242648328
24.550000000000214 16.872439218897121
24.600000000000215 16.905713362181110
24.650000000000215 16.938987637786116
24.700000000000216 16.972262012900686
24.750000000000217 17.005536456862441
24.800000000000217 17.038810941381762
24.850000000000218 17.072085440739471
24.900000000000219 17.105359931958294
24.950000000000220 17.138634394944699
25.000000000000220 17.171908812602688
25.050000000000221 17.205183170917039
25.100000000000222 17.238457459005652
25.150000000000222 17.271731669141612
25.200000000000223 17.305005796744496
25.250000000000224 17.338279840341677
25.300000000000225 17.371553801500312
25.350000000000225 17.404827684731032
25.400000000000226 17.438101497363977
25.450000000000227 17.471375249399838
25.500000000000227 17.504648953336993
25.550000000000228 17.537922623976336
25.600000000000229 17.571196278206877
25.650000000000230 17.604469934773086
25.700000000000230 17.637743614028384
25.750000000000231 17.671017337675043
25.800000000000232 17.704291128495207
25.850000000000232 17.737565010074334
25.900000000000233 17.770839006520003
25.950000000000234 17.804113142180192
