# Heisenberg S=1/2 chain with anisotropy 
# L=28, J=1.0 , Delta=1.5, Delta_{2}=0.4, deltaJ=0.0, deltah=0.0
# Dynamical diffusion D(omega)
# Frequency omega/J, Dynamical diffusion D(omega)

 0.00000 0.26744
 0.00100 0.26744
 0.00200 0.26748
 0.00300 0.26752
 0.00400 0.26756
 0.00500 0.26764
 0.00600 0.26776
 0.00700 0.26784
 0.00800 0.26800
 0.00900 0.26812
 0.01000 0.26828
 0.01100 0.26848
 0.01200 0.26868
 0.01300 0.26888
 0.01400 0.26908
 0.01500 0.26932
 0.01600 0.26956
 0.01700 0.26984
 0.01800 0.27016
 0.01900 0.27044
 0.02000 0.27080
 0.02100 0.27116
 0.02200 0.27152
 0.02300 0.27192
 0.02400 0.27236
 0.02500 0.27280
 0.02600 0.27324
 0.02700 0.27372
 0.02800 0.27420
 0.02900 0.27468
 0.03000 0.27520
 0.03100 0.27572
 0.03200 0.27628
 0.03300 0.27684
 0.03400 0.27740
 0.03500 0.27800
 0.03600 0.27860
 0.03700 0.27920
 0.03800 0.27984
 0.03900 0.28052
 0.04000 0.28120
 0.04100 0.28188
 0.04200 0.28256
 0.04300 0.28328
 0.04400 0.28400
 0.04500 0.28476
 0.04600 0.28556
 0.04700 0.28636
 0.04800 0.28716
 0.04900 0.28800
 0.05000 0.28884
 0.05100 0.28972
 0.05200 0.29064
 0.05300 0.29160
 0.05400 0.29256
 0.05500 0.29352
 0.05600 0.29452
 0.05700 0.29552
 0.05800 0.29656
 0.05900 0.29764
 0.06000 0.29872
 0.06100 0.29984
 0.06200 0.30096
 0.06300 0.30212
 0.06400 0.30324
 0.06500 0.30444
 0.06600 0.30560
 0.06700 0.30680
 0.06800 0.30800
 0.06900 0.30916
 0.07000 0.31036
 0.07100 0.31160
 0.07200 0.31288
 0.07300 0.31416
 0.07400 0.31548
 0.07500 0.31684
 0.07600 0.31820
 0.07700 0.31956
 0.07800 0.32096
 0.07900 0.32236
 0.08000 0.32384
 0.08100 0.32532
 0.08200 0.32680
 0.08300 0.32832
 0.08400 0.32984
 0.08500 0.33140
 0.08600 0.33300
 0.08700 0.33468
 0.08800 0.33632
 0.08900 0.33804
 0.09000 0.33972
 0.09100 0.34144
 0.09200 0.34320
 0.09300 0.34500
 0.09400 0.34680
 0.09500 0.34864
 0.09600 0.35044
 0.09700 0.35228
 0.09800 0.35412
 0.09900 0.35596
 0.10000 0.35788
 0.10100 0.35980
 0.10200 0.36176
 0.10300 0.36376
 0.10400 0.36572
 0.10500 0.36768
 0.10600 0.36972
 0.10700 0.37172
 0.10800 0.37380
 0.10900 0.37588
 0.11000 0.37800
 0.11100 0.38008
 0.11200 0.38216
 0.11300 0.38428
 0.11400 0.38648
 0.11500 0.38868
 0.11600 0.39088
 0.11700 0.39312
 0.11800 0.39536
 0.11900 0.39760
 0.12000 0.39988
 0.12100 0.40220
 0.12200 0.40456
 0.12300 0.40692
 0.12400 0.40928
 0.12500 0.41164
 0.12600 0.41396
 0.12700 0.41636
 0.12800 0.41880
 0.12900 0.42124
 0.13000 0.42372
 0.13100 0.42620
 0.13200 0.42868
 0.13300 0.43116
 0.13400 0.43364
 0.13500 0.43612
 0.13600 0.43868
 0.13700 0.44120
 0.13800 0.44368
 0.13900 0.44616
 0.14000 0.44864
 0.14100 0.45116
 0.14200 0.45372
 0.14300 0.45628
 0.14400 0.45888
 0.14500 0.46148
 0.14600 0.46408
 0.14700 0.46668
 0.14800 0.46936
 0.14900 0.47208
 0.15000 0.47484
 0.15100 0.47764
 0.15200 0.48040
 0.15300 0.48320
 0.15400 0.48604
 0.15500 0.48892
 0.15600 0.49188
 0.15700 0.49488
 0.15800 0.49788
 0.15900 0.50088
 0.16000 0.50388
 0.16100 0.50688
 0.16200 0.50996
 0.16300 0.51308
 0.16400 0.51620
 0.16500 0.51932
 0.16600 0.52244
 0.16700 0.52556
 0.16800 0.52872
 0.16900 0.53188
 0.17000 0.53508
 0.17100 0.53832
 0.17200 0.54152
 0.17300 0.54472
 0.17400 0.54792
 0.17500 0.55112
 0.17600 0.55440
 0.17700 0.55768
 0.17800 0.56104
 0.17900 0.56436
 0.18000 0.56764
 0.18100 0.57092
 0.18200 0.57424
 0.18300 0.57760
 0.18400 0.58104
 0.18500 0.58444
 0.18600 0.58788
 0.18700 0.59132
 0.18800 0.59476
 0.18900 0.59828
 0.19000 0.60184
 0.19100 0.60544
 0.19200 0.60904
 0.19300 0.61256
 0.19400 0.61608
 0.19500 0.61956
 0.19600 0.62300
 0.19700 0.62652
 0.19800 0.63004
 0.19900 0.63352
 0.20000 0.63700
 0.20100 0.64048
 0.20200 0.64396
 0.20300 0.64748
 0.20400 0.65104
 0.20500 0.65464
 0.20600 0.65820
 0.20700 0.66172
 0.20800 0.66524
 0.20900 0.66872
 0.21000 0.67220
 0.21100 0.67572
 0.21200 0.67928
 0.21300 0.68276
 0.21400 0.68624
 0.21500 0.68964
 0.21600 0.69308
 0.21700 0.69660
 0.21800 0.70012
 0.21900 0.70364
 0.22000 0.70712
 0.22100 0.71060
 0.22200 0.71400
 0.22300 0.71744
 0.22400 0.72092
 0.22500 0.72444
 0.22600 0.72796
 0.22700 0.73140
 0.22800 0.73480
 0.22900 0.73816
 0.23000 0.74152
 0.23100 0.74488
 0.23200 0.74824
 0.23300 0.75156
 0.23400 0.75480
 0.23500 0.75796
 0.23600 0.76108
 0.23700 0.76420
 0.23800 0.76732
 0.23900 0.77040
 0.24000 0.77348
 0.24100 0.77648
 0.24200 0.77936
 0.24300 0.78224
 0.24400 0.78508
 0.24500 0.78792
 0.24600 0.79076
 0.24700 0.79348
 0.24800 0.79608
 0.24900 0.79856
 0.25000 0.80096
 0.25100 0.80336
 0.25200 0.80572
 0.25300 0.80804
 0.25400 0.81028
 0.25500 0.81244
 0.25600 0.81448
 0.25700 0.81648
 0.25800 0.81848
 0.25900 0.82048
 0.26000 0.82240
 0.26100 0.82424
 0.26200 0.82596
 0.26300 0.82760
 0.26400 0.82920
 0.26500 0.83080
 0.26600 0.83240
 0.26700 0.83392
 0.26800 0.83532
 0.26900 0.83660
 0.27000 0.83780
 0.27100 0.83896
 0.27200 0.84004
 0.27300 0.84112
 0.27400 0.84204
 0.27500 0.84284
 0.27600 0.84348
 0.27700 0.84404
 0.27800 0.84452
 0.27900 0.84500
 0.28000 0.84544
 0.28100 0.84576
 0.28200 0.84592
 0.28300 0.84596
 0.28400 0.84596
 0.28500 0.84592
 0.28600 0.84588
 0.28700 0.84584
 0.28800 0.84572
 0.28900 0.84552
 0.29000 0.84520
 0.29100 0.84488
 0.29200 0.84456
 0.29300 0.84424
 0.29400 0.84392
 0.29500 0.84348
 0.29600 0.84288
 0.29700 0.84216
 0.29800 0.84140
 0.29900 0.84064
 0.30000 0.83988
 0.30100 0.83908
 0.30200 0.83820
 0.30300 0.83720
 0.30400 0.83612
 0.30500 0.83504
 0.30600 0.83400
 0.30700 0.83296
 0.30800 0.83188
 0.30900 0.83076
 0.31000 0.82948
 0.31100 0.82820
 0.31200 0.82692
 0.31300 0.82572
 0.31400 0.82456
 0.31500 0.82336
 0.31600 0.82208
 0.31700 0.82072
 0.31800 0.81928
 0.31900 0.81784
 0.32000 0.81652
 0.32100 0.81524
 0.32200 0.81400
 0.32300 0.81272
 0.32400 0.81140
 0.32500 0.81008
 0.32600 0.80880
 0.32700 0.80768
 0.32800 0.80656
 0.32900 0.80544
 0.33000 0.80428
 0.33100 0.80300
 0.33200 0.80168
 0.33300 0.80044
 0.33400 0.79928
 0.33500 0.79820
 0.33600 0.79708
 0.33700 0.79592
 0.33800 0.79468
 0.33900 0.79344
 0.34000 0.79228
 0.34100 0.79120
 0.34200 0.79020
 0.34300 0.78920
 0.34400 0.78812
 0.34500 0.78696
 0.34600 0.78584
 0.34700 0.78484
 0.34800 0.78396
 0.34900 0.78316
 0.35000 0.78232
 0.35100 0.78144
 0.35200 0.78056
 0.35300 0.77968
 0.35400 0.77888
 0.35500 0.77824
 0.35600 0.77760
 0.35700 0.77696
 0.35800 0.77624
 0.35900 0.77548
 0.36000 0.77472
 0.36100 0.77408
 0.36200 0.77356
 0.36300 0.77312
 0.36400 0.77264
 0.36500 0.77208
 0.36600 0.77152
 0.36700 0.77096
 0.36800 0.77056
 0.36900 0.77028
 0.37000 0.77004
 0.37100 0.76976
 0.37200 0.76940
 0.37300 0.76900
 0.37400 0.76868
 0.37500 0.76844
 0.37600 0.76832
 0.37700 0.76824
 0.37800 0.76808
 0.37900 0.76788
 0.38000 0.76760
 0.38100 0.76740
 0.38200 0.76728
 0.38300 0.76728
 0.38400 0.76728
 0.38500 0.76724
 0.38600 0.76708
 0.38700 0.76688
 0.38800 0.76676
 0.38900 0.76672
 0.39000 0.76680
 0.39100 0.76688
 0.39200 0.76696
 0.39300 0.76692
 0.39400 0.76684
 0.39500 0.76684
 0.39600 0.76696
 0.39700 0.76720
 0.39800 0.76744
 0.39900 0.76756
 0.40000 0.76760
 0.40100 0.76760
 0.40200 0.76764
 0.40300 0.76784
 0.40400 0.76808
 0.40500 0.76836
 0.40600 0.76856
 0.40700 0.76868
 0.40800 0.76876
 0.40900 0.76892
 0.41000 0.76920
 0.41100 0.76960
 0.41200 0.77000
 0.41300 0.77032
 0.41400 0.77052
 0.41500 0.77068
 0.41600 0.77096
 0.41700 0.77136
 0.41800 0.77188
 0.41900 0.77248
 0.42000 0.77296
 0.42100 0.77340
 0.42200 0.77380
 0.42300 0.77432
 0.42400 0.77496
 0.42500 0.77564
 0.42600 0.77636
 0.42700 0.77692
 0.42800 0.77740
 0.42900 0.77784
 0.43000 0.77832
 0.43100 0.77892
 0.43200 0.77960
 0.43300 0.78024
 0.43400 0.78072
 0.43500 0.78112
 0.43600 0.78148
 0.43700 0.78192
 0.43800 0.78244
 0.43900 0.78308
 0.44000 0.78364
 0.44100 0.78408
 0.44200 0.78440
 0.44300 0.78472
 0.44400 0.78512
 0.44500 0.78564
 0.44600 0.78624
 0.44700 0.78684
 0.44800 0.78736
 0.44900 0.78776
 0.45000 0.78816
 0.45100 0.78864
 0.45200 0.78924
 0.45300 0.78988
 0.45400 0.79052
 0.45500 0.79104
 0.45600 0.79144
 0.45700 0.79188
 0.45800 0.79240
 0.45900 0.79308
 0.46000 0.79380
 0.46100 0.79452
 0.46200 0.79512
 0.46300 0.79560
 0.46400 0.79612
 0.46500 0.79672
 0.46600 0.79748
 0.46700 0.79824
 0.46800 0.79896
 0.46900 0.79952
 0.47000 0.80000
 0.47100 0.80044
 0.47200 0.80100
 0.47300 0.80164
 0.47400 0.80232
 0.47500 0.80292
 0.47600 0.80340
 0.47700 0.80380
 0.47800 0.80420
 0.47900 0.80472
 0.48000 0.80532
 0.48100 0.80596
 0.48200 0.80652
 0.48300 0.80692
 0.48400 0.80724
 0.48500 0.80756
 0.48600 0.80800
 0.48700 0.80856
 0.48800 0.80912
 0.48900 0.80960
 0.49000 0.80996
 0.49100 0.81020
 0.49200 0.81048
 0.49300 0.81088
 0.49400 0.81140
 0.49500 0.81192
 0.49600 0.81240
 0.49700 0.81276
 0.49800 0.81300
 0.49900 0.81328
 0.50000 0.81368
 0.50100 0.81420
 0.50200 0.81468
 0.50300 0.81512
 0.50400 0.81536
 0.50500 0.81552
 0.50600 0.81568
 0.50700 0.81596
 0.50800 0.81632
 0.50900 0.81672
 0.51000 0.81700
 0.51100 0.81720
 0.51200 0.81728
 0.51300 0.81740
 0.51400 0.81764
 0.51500 0.81796
 0.51600 0.81832
 0.51700 0.81860
 0.51800 0.81872
 0.51900 0.81880
 0.52000 0.81888
 0.52100 0.81904
 0.52200 0.81932
 0.52300 0.81956
 0.52400 0.81972
 0.52500 0.81972
 0.52600 0.81968
 0.52700 0.81972
 0.52800 0.81988
 0.52900 0.82016
 0.53000 0.82048
 0.53100 0.82072
 0.53200 0.82092
 0.53300 0.82104
 0.53400 0.82124
 0.53500 0.82156
 0.53600 0.82196
 0.53700 0.82232
 0.53800 0.82252
 0.53900 0.82260
 0.54000 0.82260
 0.54100 0.82260
 0.54200 0.82268
 0.54300 0.82280
 0.54400 0.82288
 0.54500 0.82288
 0.54600 0.82272
 0.54700 0.82256
 0.54800 0.82240
 0.54900 0.82236
 0.55000 0.82240
 0.55100 0.82240
 0.55200 0.82228
 0.55300 0.82208
 0.55400 0.82184
 0.55500 0.82164
 0.55600 0.82156
 0.55700 0.82152
 0.55800 0.82148
 0.55900 0.82132
 0.56000 0.82104
 0.56100 0.82068
 0.56200 0.82036
 0.56300 0.82012
 0.56400 0.81996
 0.56500 0.81972
 0.56600 0.81940
 0.56700 0.81896
 0.56800 0.81852
 0.56900 0.81812
 0.57000 0.81788
 0.57100 0.81768
 0.57200 0.81748
 0.57300 0.81716
 0.57400 0.81676
 0.57500 0.81636
 0.57600 0.81604
 0.57700 0.81580
 0.57800 0.81560
 0.57900 0.81532
 0.58000 0.81496
 0.58100 0.81452
 0.58200 0.81408
 0.58300 0.81368
 0.58400 0.81336
 0.58500 0.81312
 0.58600 0.81280
 0.58700 0.81240
 0.58800 0.81188
 0.58900 0.81136
 0.59000 0.81092
 0.59100 0.81056
 0.59200 0.81020
 0.59300 0.80984
 0.59400 0.80932
 0.59500 0.80876
 0.59600 0.80816
 0.59700 0.80764
 0.59800 0.80724
 0.59900 0.80680
 0.60000 0.80636
 0.60100 0.80576
 0.60200 0.80512
 0.60300 0.80448
 0.60400 0.80388
 0.60500 0.80340
 0.60600 0.80296
 0.60700 0.80248
 0.60800 0.80192
 0.60900 0.80132
 0.61000 0.80072
 0.61100 0.80024
 0.61200 0.79980
 0.61300 0.79936
 0.61400 0.79888
 0.61500 0.79828
 0.61600 0.79760
 0.61700 0.79692
 0.61800 0.79628
 0.61900 0.79568
 0.62000 0.79504
 0.62100 0.79436
 0.62200 0.79360
 0.62300 0.79280
 0.62400 0.79204
 0.62500 0.79132
 0.62600 0.79072
 0.62700 0.79008
 0.62800 0.78936
 0.62900 0.78856
 0.63000 0.78768
 0.63100 0.78680
 0.63200 0.78600
 0.63300 0.78528
 0.63400 0.78452
 0.63500 0.78372
 0.63600 0.78280
 0.63700 0.78192
 0.63800 0.78104
 0.63900 0.78024
 0.64000 0.77948
 0.64100 0.77876
 0.64200 0.77792
 0.64300 0.77708
 0.64400 0.77616
 0.64500 0.77532
 0.64600 0.77456
 0.64700 0.77384
 0.64800 0.77312
 0.64900 0.77232
 0.65000 0.77148
 0.65100 0.77064
 0.65200 0.76980
 0.65300 0.76908
 0.65400 0.76836
 0.65500 0.76764
 0.65600 0.76684
 0.65700 0.76596
 0.65800 0.76508
 0.65900 0.76420
 0.66000 0.76340
 0.66100 0.76264
 0.66200 0.76184
 0.66300 0.76104
 0.66400 0.76012
 0.66500 0.75924
 0.66600 0.75844
 0.66700 0.75768
 0.66800 0.75696
 0.66900 0.75624
 0.67000 0.75540
 0.67100 0.75448
 0.67200 0.75356
 0.67300 0.75268
 0.67400 0.75184
 0.67500 0.75100
 0.67600 0.75012
 0.67700 0.74916
 0.67800 0.74816
 0.67900 0.74720
 0.68000 0.74628
 0.68100 0.74544
 0.68200 0.74460
 0.68300 0.74372
 0.68400 0.74276
 0.68500 0.74176
 0.68600 0.74080
 0.68700 0.73988
 0.68800 0.73900
 0.68900 0.73820
 0.69000 0.73736
 0.69100 0.73648
 0.69200 0.73552
 0.69300 0.73460
 0.69400 0.73376
 0.69500 0.73292
 0.69600 0.73212
 0.69700 0.73124
 0.69800 0.73036
 0.69900 0.72940
 0.70000 0.72848
 0.70100 0.72764
 0.70200 0.72684
 0.70300 0.72600
 0.70400 0.72516
 0.70500 0.72424
 0.70600 0.72332
 0.70700 0.72240
 0.70800 0.72152
 0.70900 0.72068
 0.71000 0.71984
 0.71100 0.71892
 0.71200 0.71796
 0.71300 0.71692
 0.71400 0.71592
 0.71500 0.71496
 0.71600 0.71404
 0.71700 0.71312
 0.71800 0.71212
 0.71900 0.71112
 0.72000 0.71008
 0.72100 0.70908
 0.72200 0.70816
 0.72300 0.70728
 0.72400 0.70640
 0.72500 0.70548
 0.72600 0.70448
 0.72700 0.70348
 0.72800 0.70252
 0.72900 0.70164
 0.73000 0.70080
 0.73100 0.69992
 0.73200 0.69900
 0.73300 0.69804
 0.73400 0.69708
 0.73500 0.69612
 0.73600 0.69524
 0.73700 0.69440
 0.73800 0.69352
 0.73900 0.69264
 0.74000 0.69164
 0.74100 0.69068
 0.74200 0.68972
 0.74300 0.68884
 0.74400 0.68800
 0.74500 0.68712
 0.74600 0.68620
 0.74700 0.68520
 0.74800 0.68420
 0.74900 0.68324
 0.75000 0.68236
 0.75100 0.68152
 0.75200 0.68068
 0.75300 0.67980
 0.75400 0.67888
 0.75500 0.67800
 0.75600 0.67712
 0.75700 0.67636
 0.75800 0.67560
 0.75900 0.67476
 0.76000 0.67388
 0.76100 0.67288
 0.76200 0.67188
 0.76300 0.67092
 0.76400 0.67000
 0.76500 0.66912
 0.76600 0.66824
 0.76700 0.66724
 0.76800 0.66620
 0.76900 0.66520
 0.77000 0.66424
 0.77100 0.66336
 0.77200 0.66252
 0.77300 0.66164
 0.77400 0.66068
 0.77500 0.65964
 0.77600 0.65856
 0.77700 0.65756
 0.77800 0.65656
 0.77900 0.65560
 0.78000 0.65460
 0.78100 0.65352
 0.78200 0.65244
 0.78300 0.65136
 0.78400 0.65036
 0.78500 0.64944
 0.78600 0.64856
 0.78700 0.64764
 0.78800 0.64660
 0.78900 0.64556
 0.79000 0.64456
 0.79100 0.64360
 0.79200 0.64272
 0.79300 0.64188
 0.79400 0.64100
 0.79500 0.64004
 0.79600 0.63904
 0.79700 0.63808
 0.79800 0.63716
 0.79900 0.63636
 0.80000 0.63556
 0.80100 0.63468
 0.80200 0.63372
 0.80300 0.63272
 0.80400 0.63172
 0.80500 0.63076
 0.80600 0.62988
 0.80700 0.62896
 0.80800 0.62800
 0.80900 0.62692
 0.81000 0.62584
 0.81100 0.62476
 0.81200 0.62376
 0.81300 0.62280
 0.81400 0.62188
 0.81500 0.62092
 0.81600 0.61984
 0.81700 0.61872
 0.81800 0.61768
 0.81900 0.61668
 0.82000 0.61576
 0.82100 0.61484
 0.82200 0.61388
 0.82300 0.61280
 0.82400 0.61172
 0.82500 0.61064
 0.82600 0.60968
 0.82700 0.60876
 0.82800 0.60784
 0.82900 0.60688
 0.83000 0.60580
 0.83100 0.60472
 0.83200 0.60368
 0.83300 0.60272
 0.83400 0.60180
 0.83500 0.60092
 0.83600 0.59996
 0.83700 0.59892
 0.83800 0.59788
 0.83900 0.59688
 0.84000 0.59596
 0.84100 0.59512
 0.84200 0.59428
 0.84300 0.59336
 0.84400 0.59236
 0.84500 0.59136
 0.84600 0.59036
 0.84700 0.58944
 0.84800 0.58856
 0.84900 0.58768
 0.85000 0.58672
 0.85100 0.58568
 0.85200 0.58460
 0.85300 0.58360
 0.85400 0.58268
 0.85500 0.58176
 0.85600 0.58084
 0.85700 0.57980
 0.85800 0.57868
 0.85900 0.57756
 0.86000 0.57644
 0.86100 0.57540
 0.86200 0.57444
 0.86300 0.57340
 0.86400 0.57232
 0.86500 0.57120
 0.86600 0.57008
 0.86700 0.56900
 0.86800 0.56808
 0.86900 0.56720
 0.87000 0.56632
 0.87100 0.56540
 0.87200 0.56440
 0.87300 0.56340
 0.87400 0.56244
 0.87500 0.56156
 0.87600 0.56068
 0.87700 0.55980
 0.87800 0.55884
 0.87900 0.55776
 0.88000 0.55668
 0.88100 0.55564
 0.88200 0.55468
 0.88300 0.55376
 0.88400 0.55280
 0.88500 0.55180
 0.88600 0.55072
 0.88700 0.54964
 0.88800 0.54864
 0.88900 0.54776
 0.89000 0.54688
 0.89100 0.54600
 0.89200 0.54508
 0.89300 0.54408
 0.89400 0.54304
 0.89500 0.54204
 0.89600 0.54108
 0.89700 0.54016
 0.89800 0.53916
 0.89900 0.53808
 0.90000 0.53696
 0.90100 0.53584
 0.90200 0.53472
 0.90300 0.53372
 0.90400 0.53276
 0.90500 0.53180
 0.90600 0.53076
 0.90700 0.52968
 0.90800 0.52864
 0.90900 0.52764
 0.91000 0.52672
 0.91100 0.52588
 0.91200 0.52504
 0.91300 0.52412
 0.91400 0.52316
 0.91500 0.52220
 0.91600 0.52128
 0.91700 0.52044
 0.91800 0.51960
 0.91900 0.51876
 0.92000 0.51780
 0.92100 0.51676
 0.92200 0.51568
 0.92300 0.51464
 0.92400 0.51364
 0.92500 0.51268
 0.92600 0.51172
 0.92700 0.51068
 0.92800 0.50960
 0.92900 0.50852
 0.93000 0.50752
 0.93100 0.50660
 0.93200 0.50568
 0.93300 0.50476
 0.93400 0.50380
 0.93500 0.50280
 0.93600 0.50176
 0.93700 0.50080
 0.93800 0.49988
 0.93900 0.49900
 0.94000 0.49808
 0.94100 0.49712
 0.94200 0.49608
 0.94300 0.49504
 0.94400 0.49400
 0.94500 0.49304
 0.94600 0.49212
 0.94700 0.49120
 0.94800 0.49020
 0.94900 0.48916
 0.95000 0.48808
 0.95100 0.48708
 0.95200 0.48612
 0.95300 0.48520
 0.95400 0.48424
 0.95500 0.48324
 0.95600 0.48220
 0.95700 0.48112
 0.95800 0.48012
 0.95900 0.47916
 0.96000 0.47824
 0.96100 0.47732
 0.96200 0.47632
 0.96300 0.47532
 0.96400 0.47428
 0.96500 0.47332
 0.96600 0.47240
 0.96700 0.47152
 0.96800 0.47060
 0.96900 0.46964
 0.97000 0.46864
 0.97100 0.46764
 0.97200 0.46664
 0.97300 0.46568
 0.97400 0.46476
 0.97500 0.46384
 0.97600 0.46284
 0.97700 0.46184
 0.97800 0.46080
 0.97900 0.45980
 0.98000 0.45884
 0.98100 0.45796
 0.98200 0.45704
 0.98300 0.45608
 0.98400 0.45512
 0.98500 0.45412
 0.98600 0.45316
 0.98700 0.45224
 0.98800 0.45140
 0.98900 0.45052
 0.99000 0.44960
 0.99100 0.44864
 0.99200 0.44764
 0.99300 0.44672
 0.99400 0.44584
 0.99500 0.44500
 0.99600 0.44412
 0.99700 0.44320
 0.99800 0.44216
 0.99900 0.44112
 1.00000 0.44012
 1.00100 0.43912
 1.00200 0.43812
 1.00300 0.43712
 1.00400 0.43608
 1.00500 0.43496
 1.00600 0.43384
 1.00700 0.43280
 1.00800 0.43180
 1.00900 0.43084
 1.01000 0.42988
 1.01100 0.42892
 1.01200 0.42792
 1.01300 0.42692
 1.01400 0.42596
 1.01500 0.42504
 1.01600 0.42412
 1.01700 0.42320
 1.01800 0.42224
 1.01900 0.42124
 1.02000 0.42020
 1.02100 0.41920
 1.02200 0.41824
 1.02300 0.41736
 1.02400 0.41640
 1.02500 0.41544
 1.02600 0.41444
 1.02700 0.41340
 1.02800 0.41244
 1.02900 0.41148
 1.03000 0.41060
 1.03100 0.40968
 1.03200 0.40876
 1.03300 0.40776
 1.03400 0.40676
 1.03500 0.40580
 1.03600 0.40488
 1.03700 0.40396
 1.03800 0.40308
 1.03900 0.40216
 1.04000 0.40116
 1.04100 0.40020
 1.04200 0.39928
 1.04300 0.39840
 1.04400 0.39760
 1.04500 0.39676
 1.04600 0.39588
 1.04700 0.39500
 1.04800 0.39408
 1.04900 0.39320
 1.05000 0.39236
 1.05100 0.39152
 1.05200 0.39072
 1.05300 0.38984
 1.05400 0.38892
 1.05500 0.38800
 1.05600 0.38712
 1.05700 0.38624
 1.05800 0.38544
 1.05900 0.38464
 1.06000 0.38376
 1.06100 0.38288
 1.06200 0.38200
 1.06300 0.38112
 1.06400 0.38028
 1.06500 0.37952
 1.06600 0.37872
 1.06700 0.37788
 1.06800 0.37696
 1.06900 0.37604
 1.07000 0.37516
 1.07100 0.37428
 1.07200 0.37344
 1.07300 0.37260
 1.07400 0.37176
 1.07500 0.37084
 1.07600 0.36992
 1.07700 0.36904
 1.07800 0.36820
 1.07900 0.36740
 1.08000 0.36660
 1.08100 0.36576
 1.08200 0.36488
 1.08300 0.36396
 1.08400 0.36308
 1.08500 0.36224
 1.08600 0.36144
 1.08700 0.36064
 1.08800 0.35976
 1.08900 0.35884
 1.09000 0.35792
 1.09100 0.35700
 1.09200 0.35616
 1.09300 0.35536
 1.09400 0.35456
 1.09500 0.35372
 1.09600 0.35280
 1.09700 0.35192
 1.09800 0.35104
 1.09900 0.35024
