# Heisenberg S=1/2 chain with anisotropy 
# L=24, J=1.0 , Delta=1.5, Delta_{2}=0.4, deltaJ=0.0, deltah=0.0
# Dynamical diffusion D(omega)
# Frequency omega/J, Dynamical diffusion D(omega)

 0.00000 0.26360
 0.00100 0.26360
 0.00200 0.26364
 0.00300 0.26368
 0.00400 0.26372
 0.00500 0.26376
 0.00600 0.26380
 0.00700 0.26388
 0.00800 0.26396
 0.00900 0.26404
 0.01000 0.26412
 0.01100 0.26424
 0.01200 0.26440
 0.01300 0.26456
 0.01400 0.26472
 0.01500 0.26488
 0.01600 0.26504
 0.01700 0.26524
 0.01800 0.26540
 0.01900 0.26560
 0.02000 0.26584
 0.02100 0.26604
 0.02200 0.26628
 0.02300 0.26652
 0.02400 0.26676
 0.02500 0.26700
 0.02600 0.26728
 0.02700 0.26752
 0.02800 0.26776
 0.02900 0.26800
 0.03000 0.26828
 0.03100 0.26856
 0.03200 0.26888
 0.03300 0.26920
 0.03400 0.26952
 0.03500 0.26988
 0.03600 0.27024
 0.03700 0.27064
 0.03800 0.27104
 0.03900 0.27148
 0.04000 0.27192
 0.04100 0.27244
 0.04200 0.27296
 0.04300 0.27352
 0.04400 0.27416
 0.04500 0.27476
 0.04600 0.27544
 0.04700 0.27616
 0.04800 0.27688
 0.04900 0.27760
 0.05000 0.27836
 0.05100 0.27912
 0.05200 0.27984
 0.05300 0.28056
 0.05400 0.28124
 0.05500 0.28192
 0.05600 0.28260
 0.05700 0.28328
 0.05800 0.28392
 0.05900 0.28464
 0.06000 0.28536
 0.06100 0.28612
 0.06200 0.28692
 0.06300 0.28772
 0.06400 0.28860
 0.06500 0.28952
 0.06600 0.29044
 0.06700 0.29136
 0.06800 0.29232
 0.06900 0.29324
 0.07000 0.29420
 0.07100 0.29520
 0.07200 0.29616
 0.07300 0.29720
 0.07400 0.29820
 0.07500 0.29928
 0.07600 0.30036
 0.07700 0.30148
 0.07800 0.30260
 0.07900 0.30376
 0.08000 0.30492
 0.08100 0.30612
 0.08200 0.30736
 0.08300 0.30860
 0.08400 0.30984
 0.08500 0.31112
 0.08600 0.31236
 0.08700 0.31364
 0.08800 0.31496
 0.08900 0.31628
 0.09000 0.31764
 0.09100 0.31900
 0.09200 0.32040
 0.09300 0.32180
 0.09400 0.32328
 0.09500 0.32476
 0.09600 0.32624
 0.09700 0.32772
 0.09800 0.32920
 0.09900 0.33068
 0.10000 0.33216
 0.10100 0.33364
 0.10200 0.33508
 0.10300 0.33648
 0.10400 0.33792
 0.10500 0.33936
 0.10600 0.34080
 0.10700 0.34224
 0.10800 0.34372
 0.10900 0.34520
 0.11000 0.34672
 0.11100 0.34832
 0.11200 0.34992
 0.11300 0.35156
 0.11400 0.35324
 0.11500 0.35496
 0.11600 0.35672
 0.11700 0.35852
 0.11800 0.36032
 0.11900 0.36216
 0.12000 0.36400
 0.12100 0.36584
 0.12200 0.36772
 0.12300 0.36964
 0.12400 0.37156
 0.12500 0.37348
 0.12600 0.37540
 0.12700 0.37736
 0.12800 0.37932
 0.12900 0.38132
 0.13000 0.38328
 0.13100 0.38528
 0.13200 0.38732
 0.13300 0.38936
 0.13400 0.39144
 0.13500 0.39352
 0.13600 0.39564
 0.13700 0.39776
 0.13800 0.39988
 0.13900 0.40204
 0.14000 0.40424
 0.14100 0.40644
 0.14200 0.40860
 0.14300 0.41076
 0.14400 0.41292
 0.14500 0.41512
 0.14600 0.41732
 0.14700 0.41948
 0.14800 0.42168
 0.14900 0.42384
 0.15000 0.42604
 0.15100 0.42828
 0.15200 0.43052
 0.15300 0.43276
 0.15400 0.43504
 0.15500 0.43732
 0.15600 0.43964
 0.15700 0.44200
 0.15800 0.44436
 0.15900 0.44672
 0.16000 0.44908
 0.16100 0.45148
 0.16200 0.45392
 0.16300 0.45644
 0.16400 0.45896
 0.16500 0.46148
 0.16600 0.46404
 0.16700 0.46668
 0.16800 0.46936
 0.16900 0.47208
 0.17000 0.47484
 0.17100 0.47756
 0.17200 0.48028
 0.17300 0.48304
 0.17400 0.48576
 0.17500 0.48844
 0.17600 0.49108
 0.17700 0.49372
 0.17800 0.49628
 0.17900 0.49892
 0.18000 0.50152
 0.18100 0.50416
 0.18200 0.50680
 0.18300 0.50944
 0.18400 0.51208
 0.18500 0.51476
 0.18600 0.51744
 0.18700 0.52012
 0.18800 0.52280
 0.18900 0.52556
 0.19000 0.52832
 0.19100 0.53120
 0.19200 0.53408
 0.19300 0.53700
 0.19400 0.53992
 0.19500 0.54284
 0.19600 0.54584
 0.19700 0.54884
 0.19800 0.55192
 0.19900 0.55500
 0.20000 0.55816
 0.20100 0.56136
 0.20200 0.56472
 0.20300 0.56812
 0.20400 0.57156
 0.20500 0.57504
 0.20600 0.57856
 0.20700 0.58208
 0.20800 0.58560
 0.20900 0.58912
 0.21000 0.59260
 0.21100 0.59604
 0.21200 0.59944
 0.21300 0.60284
 0.21400 0.60628
 0.21500 0.60968
 0.21600 0.61308
 0.21700 0.61644
 0.21800 0.61984
 0.21900 0.62328
 0.22000 0.62668
 0.22100 0.63012
 0.22200 0.63352
 0.22300 0.63696
 0.22400 0.64044
 0.22500 0.64396
 0.22600 0.64756
 0.22700 0.65116
 0.22800 0.65472
 0.22900 0.65828
 0.23000 0.66180
 0.23100 0.66532
 0.23200 0.66872
 0.23300 0.67208
 0.23400 0.67532
 0.23500 0.67856
 0.23600 0.68172
 0.23700 0.68488
 0.23800 0.68800
 0.23900 0.69112
 0.24000 0.69424
 0.24100 0.69740
 0.24200 0.70068
 0.24300 0.70404
 0.24400 0.70748
 0.24500 0.71100
 0.24600 0.71456
 0.24700 0.71820
 0.24800 0.72188
 0.24900 0.72560
 0.25000 0.72932
 0.25100 0.73304
 0.25200 0.73668
 0.25300 0.74036
 0.25400 0.74400
 0.25500 0.74760
 0.25600 0.75116
 0.25700 0.75468
 0.25800 0.75820
 0.25900 0.76164
 0.26000 0.76508
 0.26100 0.76840
 0.26200 0.77168
 0.26300 0.77492
 0.26400 0.77820
 0.26500 0.78148
 0.26600 0.78480
 0.26700 0.78816
 0.26800 0.79152
 0.26900 0.79492
 0.27000 0.79836
 0.27100 0.80180
 0.27200 0.80524
 0.27300 0.80864
 0.27400 0.81196
 0.27500 0.81524
 0.27600 0.81848
 0.27700 0.82164
 0.27800 0.82476
 0.27900 0.82780
 0.28000 0.83076
 0.28100 0.83368
 0.28200 0.83656
 0.28300 0.83936
 0.28400 0.84208
 0.28500 0.84472
 0.28600 0.84732
 0.28700 0.84988
 0.28800 0.85248
 0.28900 0.85508
 0.29000 0.85764
 0.29100 0.86012
 0.29200 0.86260
 0.29300 0.86504
 0.29400 0.86748
 0.29500 0.86988
 0.29600 0.87224
 0.29700 0.87456
 0.29800 0.87684
 0.29900 0.87916
 0.30000 0.88144
 0.30100 0.88368
 0.30200 0.88588
 0.30300 0.88804
 0.30400 0.89016
 0.30500 0.89228
 0.30600 0.89432
 0.30700 0.89624
 0.30800 0.89804
 0.30900 0.89976
 0.31000 0.90144
 0.31100 0.90308
 0.31200 0.90472
 0.31300 0.90632
 0.31400 0.90788
 0.31500 0.90940
 0.31600 0.91088
 0.31700 0.91228
 0.31800 0.91352
 0.31900 0.91464
 0.32000 0.91564
 0.32100 0.91656
 0.32200 0.91740
 0.32300 0.91820
 0.32400 0.91888
 0.32500 0.91952
 0.32600 0.92012
 0.32700 0.92072
 0.32800 0.92124
 0.32900 0.92172
 0.33000 0.92208
 0.33100 0.92236
 0.33200 0.92252
 0.33300 0.92260
 0.33400 0.92268
 0.33500 0.92268
 0.33600 0.92264
 0.33700 0.92252
 0.33800 0.92236
 0.33900 0.92224
 0.34000 0.92200
 0.34100 0.92172
 0.34200 0.92128
 0.34300 0.92080
 0.34400 0.92028
 0.34500 0.91976
 0.34600 0.91920
 0.34700 0.91860
 0.34800 0.91796
 0.34900 0.91732
 0.35000 0.91676
 0.35100 0.91616
 0.35200 0.91552
 0.35300 0.91480
 0.35400 0.91396
 0.35500 0.91304
 0.35600 0.91208
 0.35700 0.91100
 0.35800 0.90984
 0.35900 0.90860
 0.36000 0.90732
 0.36100 0.90600
 0.36200 0.90468
 0.36300 0.90336
 0.36400 0.90196
 0.36500 0.90052
 0.36600 0.89908
 0.36700 0.89768
 0.36800 0.89628
 0.36900 0.89488
 0.37000 0.89352
 0.37100 0.89212
 0.37200 0.89076
 0.37300 0.88944
 0.37400 0.88816
 0.37500 0.88692
 0.37600 0.88568
 0.37700 0.88444
 0.37800 0.88320
 0.37900 0.88204
 0.38000 0.88088
 0.38100 0.87968
 0.38200 0.87844
 0.38300 0.87716
 0.38400 0.87592
 0.38500 0.87464
 0.38600 0.87332
 0.38700 0.87196
 0.38800 0.87056
 0.38900 0.86912
 0.39000 0.86768
 0.39100 0.86624
 0.39200 0.86472
 0.39300 0.86312
 0.39400 0.86144
 0.39500 0.85972
 0.39600 0.85800
 0.39700 0.85628
 0.39800 0.85456
 0.39900 0.85288
 0.40000 0.85132
 0.40100 0.84988
 0.40200 0.84864
 0.40300 0.84756
 0.40400 0.84652
 0.40500 0.84552
 0.40600 0.84456
 0.40700 0.84364
 0.40800 0.84272
 0.40900 0.84172
 0.41000 0.84072
 0.41100 0.83964
 0.41200 0.83856
 0.41300 0.83752
 0.41400 0.83652
 0.41500 0.83548
 0.41600 0.83440
 0.41700 0.83332
 0.41800 0.83224
 0.41900 0.83120
 0.42000 0.83020
 0.42100 0.82924
 0.42200 0.82828
 0.42300 0.82740
 0.42400 0.82652
 0.42500 0.82568
 0.42600 0.82480
 0.42700 0.82392
 0.42800 0.82296
 0.42900 0.82208
 0.43000 0.82124
 0.43100 0.82048
 0.43200 0.81972
 0.43300 0.81896
 0.43400 0.81820
 0.43500 0.81752
 0.43600 0.81684
 0.43700 0.81616
 0.43800 0.81548
 0.43900 0.81472
 0.44000 0.81396
 0.44100 0.81324
 0.44200 0.81256
 0.44300 0.81192
 0.44400 0.81128
 0.44500 0.81068
 0.44600 0.81016
 0.44700 0.80972
 0.44800 0.80936
 0.44900 0.80904
 0.45000 0.80876
 0.45100 0.80852
 0.45200 0.80836
 0.45300 0.80828
 0.45400 0.80828
 0.45500 0.80828
 0.45600 0.80832
 0.45700 0.80840
 0.45800 0.80856
 0.45900 0.80876
 0.46000 0.80896
 0.46100 0.80912
 0.46200 0.80924
 0.46300 0.80936
 0.46400 0.80948
 0.46500 0.80960
 0.46600 0.80968
 0.46700 0.80976
 0.46800 0.80980
 0.46900 0.80988
 0.47000 0.80996
 0.47100 0.81008
 0.47200 0.81012
 0.47300 0.81012
 0.47400 0.81000
 0.47500 0.80988
 0.47600 0.80976
 0.47700 0.80960
 0.47800 0.80944
 0.47900 0.80924
 0.48000 0.80916
 0.48100 0.80912
 0.48200 0.80916
 0.48300 0.80920
 0.48400 0.80924
 0.48500 0.80924
 0.48600 0.80924
 0.48700 0.80924
 0.48800 0.80920
 0.48900 0.80912
 0.49000 0.80896
 0.49100 0.80876
 0.49200 0.80856
 0.49300 0.80836
 0.49400 0.80820
 0.49500 0.80804
 0.49600 0.80788
 0.49700 0.80780
 0.49800 0.80780
 0.49900 0.80788
 0.50000 0.80804
 0.50100 0.80820
 0.50200 0.80840
 0.50300 0.80860
 0.50400 0.80884
 0.50500 0.80908
 0.50600 0.80924
 0.50700 0.80936
 0.50800 0.80948
 0.50900 0.80956
 0.51000 0.80972
 0.51100 0.80988
 0.51200 0.81008
 0.51300 0.81024
 0.51400 0.81040
 0.51500 0.81056
 0.51600 0.81076
 0.51700 0.81100
 0.51800 0.81120
 0.51900 0.81140
 0.52000 0.81168
 0.52100 0.81196
 0.52200 0.81232
 0.52300 0.81268
 0.52400 0.81304
 0.52500 0.81332
 0.52600 0.81360
 0.52700 0.81384
 0.52800 0.81400
 0.52900 0.81408
 0.53000 0.81404
 0.53100 0.81388
 0.53200 0.81372
 0.53300 0.81348
 0.53400 0.81324
 0.53500 0.81296
 0.53600 0.81268
 0.53700 0.81248
 0.53800 0.81232
 0.53900 0.81228
 0.54000 0.81228
 0.54100 0.81228
 0.54200 0.81236
 0.54300 0.81240
 0.54400 0.81252
 0.54500 0.81268
 0.54600 0.81284
 0.54700 0.81296
 0.54800 0.81308
 0.54900 0.81320
 0.55000 0.81332
 0.55100 0.81344
 0.55200 0.81356
 0.55300 0.81364
 0.55400 0.81376
 0.55500 0.81388
 0.55600 0.81408
 0.55700 0.81424
 0.55800 0.81436
 0.55900 0.81444
 0.56000 0.81444
 0.56100 0.81440
 0.56200 0.81432
 0.56300 0.81420
 0.56400 0.81400
 0.56500 0.81380
 0.56600 0.81360
 0.56700 0.81344
 0.56800 0.81324
 0.56900 0.81308
 0.57000 0.81296
 0.57100 0.81280
 0.57200 0.81272
 0.57300 0.81264
 0.57400 0.81260
 0.57500 0.81256
 0.57600 0.81248
 0.57700 0.81232
 0.57800 0.81216
 0.57900 0.81200
 0.58000 0.81180
 0.58100 0.81160
 0.58200 0.81140
 0.58300 0.81116
 0.58400 0.81100
 0.58500 0.81088
 0.58600 0.81076
 0.58700 0.81068
 0.58800 0.81060
 0.58900 0.81048
 0.59000 0.81040
 0.59100 0.81028
 0.59200 0.81016
 0.59300 0.80996
 0.59400 0.80976
 0.59500 0.80960
 0.59600 0.80940
 0.59700 0.80920
 0.59800 0.80896
 0.59900 0.80868
 0.60000 0.80840
 0.60100 0.80812
 0.60200 0.80784
 0.60300 0.80760
 0.60400 0.80740
 0.60500 0.80720
 0.60600 0.80704
 0.60700 0.80692
 0.60800 0.80684
 0.60900 0.80676
 0.61000 0.80668
 0.61100 0.80656
 0.61200 0.80648
 0.61300 0.80640
 0.61400 0.80636
 0.61500 0.80632
 0.61600 0.80624
 0.61700 0.80620
 0.61800 0.80616
 0.61900 0.80608
 0.62000 0.80600
 0.62100 0.80580
 0.62200 0.80552
 0.62300 0.80516
 0.62400 0.80472
 0.62500 0.80424
 0.62600 0.80376
 0.62700 0.80324
 0.62800 0.80276
 0.62900 0.80228
 0.63000 0.80188
 0.63100 0.80152
 0.63200 0.80116
 0.63300 0.80080
 0.63400 0.80048
 0.63500 0.80012
 0.63600 0.79976
 0.63700 0.79940
 0.63800 0.79900
 0.63900 0.79856
 0.64000 0.79808
 0.64100 0.79760
 0.64200 0.79708
 0.64300 0.79660
 0.64400 0.79608
 0.64500 0.79560
 0.64600 0.79520
 0.64700 0.79480
 0.64800 0.79448
 0.64900 0.79416
 0.65000 0.79380
 0.65100 0.79340
 0.65200 0.79296
 0.65300 0.79248
 0.65400 0.79196
 0.65500 0.79136
 0.65600 0.79076
 0.65700 0.79016
 0.65800 0.78952
 0.65900 0.78888
 0.66000 0.78824
 0.66100 0.78756
 0.66200 0.78684
 0.66300 0.78612
 0.66400 0.78536
 0.66500 0.78456
 0.66600 0.78372
 0.66700 0.78288
 0.66800 0.78196
 0.66900 0.78108
 0.67000 0.78020
 0.67100 0.77932
 0.67200 0.77848
 0.67300 0.77764
 0.67400 0.77684
 0.67500 0.77604
 0.67600 0.77528
 0.67700 0.77448
 0.67800 0.77372
 0.67900 0.77296
 0.68000 0.77216
 0.68100 0.77140
 0.68200 0.77064
 0.68300 0.76984
 0.68400 0.76904
 0.68500 0.76816
 0.68600 0.76724
 0.68700 0.76628
 0.68800 0.76528
 0.68900 0.76424
 0.69000 0.76324
 0.69100 0.76228
 0.69200 0.76132
 0.69300 0.76044
 0.69400 0.75960
 0.69500 0.75884
 0.69600 0.75808
 0.69700 0.75732
 0.69800 0.75656
 0.69900 0.75576
 0.70000 0.75492
 0.70100 0.75404
 0.70200 0.75312
 0.70300 0.75220
 0.70400 0.75124
 0.70500 0.75032
 0.70600 0.74940
 0.70700 0.74856
 0.70800 0.74772
 0.70900 0.74692
 0.71000 0.74616
 0.71100 0.74540
 0.71200 0.74472
 0.71300 0.74404
 0.71400 0.74340
 0.71500 0.74276
 0.71600 0.74212
 0.71700 0.74144
 0.71800 0.74072
 0.71900 0.73992
 0.72000 0.73904
 0.72100 0.73808
 0.72200 0.73704
 0.72300 0.73596
 0.72400 0.73480
 0.72500 0.73360
 0.72600 0.73236
 0.72700 0.73112
 0.72800 0.72984
 0.72900 0.72856
 0.73000 0.72732
 0.73100 0.72612
 0.73200 0.72500
 0.73300 0.72388
 0.73400 0.72280
 0.73500 0.72172
 0.73600 0.72064
 0.73700 0.71952
 0.73800 0.71840
 0.73900 0.71724
 0.74000 0.71608
 0.74100 0.71496
 0.74200 0.71384
 0.74300 0.71280
 0.74400 0.71176
 0.74500 0.71080
 0.74600 0.70984
 0.74700 0.70896
 0.74800 0.70804
 0.74900 0.70716
 0.75000 0.70628
 0.75100 0.70540
 0.75200 0.70448
 0.75300 0.70356
 0.75400 0.70264
 0.75500 0.70172
 0.75600 0.70076
 0.75700 0.69984
 0.75800 0.69892
 0.75900 0.69800
 0.76000 0.69712
 0.76100 0.69624
 0.76200 0.69532
 0.76300 0.69440
 0.76400 0.69344
 0.76500 0.69244
 0.76600 0.69144
 0.76700 0.69036
 0.76800 0.68928
 0.76900 0.68820
 0.77000 0.68712
 0.77100 0.68600
 0.77200 0.68488
 0.77300 0.68380
 0.77400 0.68268
 0.77500 0.68160
 0.77600 0.68056
 0.77700 0.67952
 0.77800 0.67848
 0.77900 0.67740
 0.78000 0.67636
 0.78100 0.67528
 0.78200 0.67424
 0.78300 0.67316
 0.78400 0.67208
 0.78500 0.67104
 0.78600 0.67004
 0.78700 0.66908
 0.78800 0.66816
 0.78900 0.66720
 0.79000 0.66628
 0.79100 0.66536
 0.79200 0.66444
 0.79300 0.66356
 0.79400 0.66268
 0.79500 0.66180
 0.79600 0.66096
 0.79700 0.66012
 0.79800 0.65928
 0.79900 0.65840
 0.80000 0.65752
 0.80100 0.65660
 0.80200 0.65560
 0.80300 0.65460
 0.80400 0.65352
 0.80500 0.65240
 0.80600 0.65124
 0.80700 0.65000
 0.80800 0.64876
 0.80900 0.64748
 0.81000 0.64620
 0.81100 0.64492
 0.81200 0.64364
 0.81300 0.64236
 0.81400 0.64112
 0.81500 0.63988
 0.81600 0.63864
 0.81700 0.63744
 0.81800 0.63620
 0.81900 0.63500
 0.82000 0.63380
 0.82100 0.63260
 0.82200 0.63144
 0.82300 0.63032
 0.82400 0.62920
 0.82500 0.62808
 0.82600 0.62704
 0.82700 0.62604
 0.82800 0.62504
 0.82900 0.62404
 0.83000 0.62304
 0.83100 0.62204
 0.83200 0.62104
 0.83300 0.62004
 0.83400 0.61908
 0.83500 0.61812
 0.83600 0.61712
 0.83700 0.61616
 0.83800 0.61516
 0.83900 0.61416
 0.84000 0.61308
 0.84100 0.61196
 0.84200 0.61080
 0.84300 0.60960
 0.84400 0.60840
 0.84500 0.60720
 0.84600 0.60600
 0.84700 0.60484
 0.84800 0.60372
 0.84900 0.60268
 0.85000 0.60172
 0.85100 0.60080
 0.85200 0.59992
 0.85300 0.59904
 0.85400 0.59820
 0.85500 0.59740
 0.85600 0.59656
 0.85700 0.59576
 0.85800 0.59488
 0.85900 0.59404
 0.86000 0.59320
 0.86100 0.59232
 0.86200 0.59144
 0.86300 0.59048
 0.86400 0.58944
 0.86500 0.58832
 0.86600 0.58716
 0.86700 0.58592
 0.86800 0.58468
 0.86900 0.58336
 0.87000 0.58204
 0.87100 0.58072
 0.87200 0.57940
 0.87300 0.57812
 0.87400 0.57684
 0.87500 0.57560
 0.87600 0.57432
 0.87700 0.57308
 0.87800 0.57184
 0.87900 0.57060
 0.88000 0.56932
 0.88100 0.56800
 0.88200 0.56668
 0.88300 0.56532
 0.88400 0.56396
 0.88500 0.56260
 0.88600 0.56120
 0.88700 0.55984
 0.88800 0.55848
 0.88900 0.55716
 0.89000 0.55588
 0.89100 0.55464
 0.89200 0.55340
 0.89300 0.55224
 0.89400 0.55116
 0.89500 0.55016
 0.89600 0.54924
 0.89700 0.54840
 0.89800 0.54760
 0.89900 0.54684
 0.90000 0.54608
 0.90100 0.54536
 0.90200 0.54460
 0.90300 0.54376
 0.90400 0.54292
 0.90500 0.54208
 0.90600 0.54120
 0.90700 0.54032
 0.90800 0.53944
 0.90900 0.53856
 0.91000 0.53764
 0.91100 0.53668
 0.91200 0.53576
 0.91300 0.53476
 0.91400 0.53372
 0.91500 0.53268
 0.91600 0.53160
 0.91700 0.53052
 0.91800 0.52940
 0.91900 0.52832
 0.92000 0.52720
 0.92100 0.52604
 0.92200 0.52488
 0.92300 0.52376
 0.92400 0.52260
 0.92500 0.52148
 0.92600 0.52032
 0.92700 0.51912
 0.92800 0.51792
 0.92900 0.51672
 0.93000 0.51548
 0.93100 0.51420
 0.93200 0.51292
 0.93300 0.51164
 0.93400 0.51036
 0.93500 0.50912
 0.93600 0.50788
 0.93700 0.50672
 0.93800 0.50556
 0.93900 0.50448
 0.94000 0.50344
 0.94100 0.50248
 0.94200 0.50152
 0.94300 0.50056
 0.94400 0.49960
 0.94500 0.49864
 0.94600 0.49768
 0.94700 0.49676
 0.94800 0.49584
 0.94900 0.49488
 0.95000 0.49400
 0.95100 0.49308
 0.95200 0.49220
 0.95300 0.49132
 0.95400 0.49040
 0.95500 0.48948
 0.95600 0.48860
 0.95700 0.48768
 0.95800 0.48680
 0.95900 0.48588
 0.96000 0.48496
 0.96100 0.48404
 0.96200 0.48312
 0.96300 0.48216
 0.96400 0.48116
 0.96500 0.48012
 0.96600 0.47904
 0.96700 0.47792
 0.96800 0.47676
 0.96900 0.47560
 0.97000 0.47440
 0.97100 0.47316
 0.97200 0.47196
 0.97300 0.47072
 0.97400 0.46952
 0.97500 0.46836
 0.97600 0.46724
 0.97700 0.46620
 0.97800 0.46516
 0.97900 0.46420
 0.98000 0.46328
 0.98100 0.46236
 0.98200 0.46148
 0.98300 0.46056
 0.98400 0.45968
 0.98500 0.45880
 0.98600 0.45796
 0.98700 0.45712
 0.98800 0.45632
 0.98900 0.45556
 0.99000 0.45480
 0.99100 0.45404
 0.99200 0.45328
 0.99300 0.45248
 0.99400 0.45164
 0.99500 0.45084
 0.99600 0.45000
 0.99700 0.44912
 0.99800 0.44820
 0.99900 0.44724
 1.00000 0.44628
 1.00100 0.44524
 1.00200 0.44412
 1.00300 0.44300
 1.00400 0.44180
 1.00500 0.44056
 1.00600 0.43928
 1.00700 0.43804
 1.00800 0.43684
 1.00900 0.43572
 1.01000 0.43464
 1.01100 0.43360
 1.01200 0.43264
 1.01300 0.43172
 1.01400 0.43088
 1.01500 0.43000
 1.01600 0.42916
 1.01700 0.42832
 1.01800 0.42748
 1.01900 0.42668
 1.02000 0.42584
 1.02100 0.42500
 1.02200 0.42416
 1.02300 0.42328
 1.02400 0.42240
 1.02500 0.42156
 1.02600 0.42072
 1.02700 0.41984
 1.02800 0.41900
 1.02900 0.41812
 1.03000 0.41720
 1.03100 0.41628
 1.03200 0.41528
 1.03300 0.41424
 1.03400 0.41320
 1.03500 0.41216
 1.03600 0.41112
 1.03700 0.41012
 1.03800 0.40912
 1.03900 0.40808
 1.04000 0.40704
 1.04100 0.40604
 1.04200 0.40504
 1.04300 0.40400
 1.04400 0.40300
 1.04500 0.40200
 1.04600 0.40100
 1.04700 0.40008
 1.04800 0.39916
 1.04900 0.39828
 1.05000 0.39740
 1.05100 0.39656
 1.05200 0.39572
 1.05300 0.39488
 1.05400 0.39404
 1.05500 0.39316
 1.05600 0.39224
 1.05700 0.39128
 1.05800 0.39036
 1.05900 0.38944
 1.06000 0.38852
 1.06100 0.38760
 1.06200 0.38672
 1.06300 0.38584
 1.06400 0.38500
 1.06500 0.38420
 1.06600 0.38344
 1.06700 0.38268
 1.06800 0.38196
 1.06900 0.38124
 1.07000 0.38048
 1.07100 0.37976
 1.07200 0.37896
 1.07300 0.37812
 1.07400 0.37728
 1.07500 0.37644
 1.07600 0.37560
 1.07700 0.37476
 1.07800 0.37392
 1.07900 0.37304
 1.08000 0.37220
 1.08100 0.37136
 1.08200 0.37056
 1.08300 0.36972
 1.08400 0.36884
 1.08500 0.36800
 1.08600 0.36716
 1.08700 0.36632
 1.08800 0.36548
 1.08900 0.36464
 1.09000 0.36376
 1.09100 0.36288
 1.09200 0.36200
 1.09300 0.36112
 1.09400 0.36024
 1.09500 0.35936
 1.09600 0.35844
 1.09700 0.35756
 1.09800 0.35668
 1.09900 0.35576
