# Heisenberg S=1/2 chain with anisotropy 
# L=20, J=1.0 , Delta=1.5, Delta_{2}=0.4, deltaJ=0.0, deltah=0.0
# Dynamical diffusion D(omega)
# Frequency omega/J, Dynamical diffusion D(omega)

 0.00000 0.25440
 0.00100 0.25448
 0.00200 0.25472
 0.00300 0.25508
 0.00400 0.25548
 0.00500 0.25588
 0.00600 0.25616
 0.00700 0.25632
 0.00800 0.25636
 0.00900 0.25640
 0.01000 0.25652
 0.01100 0.25676
 0.01200 0.25712
 0.01300 0.25760
 0.01400 0.25808
 0.01500 0.25844
 0.01600 0.25860
 0.01700 0.25860
 0.01800 0.25840
 0.01900 0.25812
 0.02000 0.25776
 0.02100 0.25740
 0.02200 0.25720
 0.02300 0.25708
 0.02400 0.25704
 0.02500 0.25708
 0.02600 0.25712
 0.02700 0.25712
 0.02800 0.25704
 0.02900 0.25684
 0.03000 0.25664
 0.03100 0.25644
 0.03200 0.25636
 0.03300 0.25644
 0.03400 0.25676
 0.03500 0.25728
 0.03600 0.25800
 0.03700 0.25880
 0.03800 0.25956
 0.03900 0.26024
 0.04000 0.26072
 0.04100 0.26104
 0.04200 0.26120
 0.04300 0.26136
 0.04400 0.26156
 0.04500 0.26188
 0.04600 0.26236
 0.04700 0.26288
 0.04800 0.26340
 0.04900 0.26376
 0.05000 0.26392
 0.05100 0.26396
 0.05200 0.26384
 0.05300 0.26368
 0.05400 0.26360
 0.05500 0.26364
 0.05600 0.26384
 0.05700 0.26420
 0.05800 0.26472
 0.05900 0.26524
 0.06000 0.26580
 0.06100 0.26628
 0.06200 0.26668
 0.06300 0.26708
 0.06400 0.26748
 0.06500 0.26800
 0.06600 0.26872
 0.06700 0.26960
 0.06800 0.27064
 0.06900 0.27180
 0.07000 0.27292
 0.07100 0.27400
 0.07200 0.27488
 0.07300 0.27560
 0.07400 0.27624
 0.07500 0.27680
 0.07600 0.27744
 0.07700 0.27824
 0.07800 0.27932
 0.07900 0.28056
 0.08000 0.28188
 0.08100 0.28316
 0.08200 0.28432
 0.08300 0.28524
 0.08400 0.28600
 0.08500 0.28660
 0.08600 0.28720
 0.08700 0.28796
 0.08800 0.28900
 0.08900 0.29036
 0.09000 0.29204
 0.09100 0.29392
 0.09200 0.29584
 0.09300 0.29772
 0.09400 0.29936
 0.09500 0.30080
 0.09600 0.30200
 0.09700 0.30308
 0.09800 0.30416
 0.09900 0.30528
 0.10000 0.30652
 0.10100 0.30780
 0.10200 0.30912
 0.10300 0.31036
 0.10400 0.31148
 0.10500 0.31236
 0.10600 0.31308
 0.10700 0.31364
 0.10800 0.31416
 0.10900 0.31480
 0.11000 0.31564
 0.11100 0.31672
 0.11200 0.31800
 0.11300 0.31944
 0.11400 0.32088
 0.11500 0.32220
 0.11600 0.32336
 0.11700 0.32428
 0.11800 0.32508
 0.11900 0.32580
 0.12000 0.32660
 0.12100 0.32760
 0.12200 0.32880
 0.12300 0.33024
 0.12400 0.33180
 0.12500 0.33340
 0.12600 0.33500
 0.12700 0.33656
 0.12800 0.33808
 0.12900 0.33964
 0.13000 0.34132
 0.13100 0.34328
 0.13200 0.34556
 0.13300 0.34812
 0.13400 0.35080
 0.13500 0.35344
 0.13600 0.35584
 0.13700 0.35800
 0.13800 0.35984
 0.13900 0.36148
 0.14000 0.36300
 0.14100 0.36448
 0.14200 0.36604
 0.14300 0.36772
 0.14400 0.36948
 0.14500 0.37128
 0.14600 0.37300
 0.14700 0.37452
 0.14800 0.37572
 0.14900 0.37656
 0.15000 0.37716
 0.15100 0.37760
 0.15200 0.37808
 0.15300 0.37876
 0.15400 0.37976
 0.15500 0.38108
 0.15600 0.38268
 0.15700 0.38440
 0.15800 0.38608
 0.15900 0.38764
 0.16000 0.38904
 0.16100 0.39028
 0.16200 0.39148
 0.16300 0.39284
 0.16400 0.39440
 0.16500 0.39632
 0.16600 0.39856
 0.16700 0.40096
 0.16800 0.40348
 0.16900 0.40588
 0.17000 0.40808
 0.17100 0.41000
 0.17200 0.41168
 0.17300 0.41320
 0.17400 0.41476
 0.17500 0.41648
 0.17600 0.41848
 0.17700 0.42068
 0.17800 0.42300
 0.17900 0.42532
 0.18000 0.42752
 0.18100 0.42948
 0.18200 0.43128
 0.18300 0.43300
 0.18400 0.43476
 0.18500 0.43672
 0.18600 0.43896
 0.18700 0.44160
 0.18800 0.44452
 0.18900 0.44756
 0.19000 0.45060
 0.19100 0.45352
 0.19200 0.45620
 0.19300 0.45872
 0.19400 0.46116
 0.19500 0.46368
 0.19600 0.46636
 0.19700 0.46936
 0.19800 0.47264
 0.19900 0.47612
 0.20000 0.47956
 0.20100 0.48284
 0.20200 0.48580
 0.20300 0.48832
 0.20400 0.49052
 0.20500 0.49252
 0.20600 0.49452
 0.20700 0.49676
 0.20800 0.49932
 0.20900 0.50228
 0.21000 0.50552
 0.21100 0.50884
 0.21200 0.51208
 0.21300 0.51508
 0.21400 0.51780
 0.21500 0.52032
 0.21600 0.52284
 0.21700 0.52552
 0.21800 0.52856
 0.21900 0.53200
 0.22000 0.53572
 0.22100 0.53960
 0.22200 0.54328
 0.22300 0.54668
 0.22400 0.54964
 0.22500 0.55224
 0.22600 0.55456
 0.22700 0.55684
 0.22800 0.55924
 0.22900 0.56184
 0.23000 0.56468
 0.23100 0.56760
 0.23200 0.57048
 0.23300 0.57316
 0.23400 0.57548
 0.23500 0.57744
 0.23600 0.57900
 0.23700 0.58036
 0.23800 0.58164
 0.23900 0.58308
 0.24000 0.58484
 0.24100 0.58696
 0.24200 0.58936
 0.24300 0.59192
 0.24400 0.59448
 0.24500 0.59692
 0.24600 0.59920
 0.24700 0.60136
 0.24800 0.60348
 0.24900 0.60576
 0.25000 0.60832
 0.25100 0.61132
 0.25200 0.61468
 0.25300 0.61836
 0.25400 0.62224
 0.25500 0.62616
 0.25600 0.63000
 0.25700 0.63372
 0.25800 0.63736
 0.25900 0.64100
 0.26000 0.64468
 0.26100 0.64856
 0.26200 0.65264
 0.26300 0.65684
 0.26400 0.66112
 0.26500 0.66524
 0.26600 0.66912
 0.26700 0.67276
 0.26800 0.67624
 0.26900 0.67968
 0.27000 0.68324
 0.27100 0.68712
 0.27200 0.69132
 0.27300 0.69584
 0.27400 0.70060
 0.27500 0.70544
 0.27600 0.71020
 0.27700 0.71480
 0.27800 0.71920
 0.27900 0.72332
 0.28000 0.72724
 0.28100 0.73112
 0.28200 0.73512
 0.28300 0.73936
 0.28400 0.74392
 0.28500 0.74872
 0.28600 0.75360
 0.28700 0.75836
 0.28800 0.76280
 0.28900 0.76680
 0.29000 0.77032
 0.29100 0.77344
 0.29200 0.77624
 0.29300 0.77880
 0.29400 0.78124
 0.29500 0.78364
 0.29600 0.78608
 0.29700 0.78860
 0.29800 0.79120
 0.29900 0.79392
 0.30000 0.79668
 0.30100 0.79952
 0.30200 0.80236
 0.30300 0.80536
 0.30400 0.80860
 0.30500 0.81208
 0.30600 0.81576
 0.30700 0.81956
 0.30800 0.82320
 0.30900 0.82652
 0.31000 0.82952
 0.31100 0.83224
 0.31200 0.83484
 0.31300 0.83760
 0.31400 0.84064
 0.31500 0.84408
 0.31600 0.84784
 0.31700 0.85176
 0.31800 0.85564
 0.31900 0.85944
 0.32000 0.86316
 0.32100 0.86680
 0.32200 0.87060
 0.32300 0.87468
 0.32400 0.87908
 0.32500 0.88384
 0.32600 0.88900
 0.32700 0.89452
 0.32800 0.90024
 0.32900 0.90608
 0.33000 0.91188
 0.33100 0.91748
 0.33200 0.92268
 0.33300 0.92744
 0.33400 0.93168
 0.33500 0.93544
 0.33600 0.93896
 0.33700 0.94244
 0.33800 0.94604
 0.33900 0.94992
 0.34000 0.95400
 0.34100 0.95824
 0.34200 0.96236
 0.34300 0.96616
 0.34400 0.96944
 0.34500 0.97216
 0.34600 0.97432
 0.34700 0.97600
 0.34800 0.97732
 0.34900 0.97836
 0.35000 0.97924
 0.35100 0.97992
 0.35200 0.98044
 0.35300 0.98084
 0.35400 0.98104
 0.35500 0.98108
 0.35600 0.98108
 0.35700 0.98108
 0.35800 0.98116
 0.35900 0.98132
 0.36000 0.98164
 0.36100 0.98200
 0.36200 0.98228
 0.36300 0.98232
 0.36400 0.98212
 0.36500 0.98168
 0.36600 0.98116
 0.36700 0.98088
 0.36800 0.98104
 0.36900 0.98188
 0.37000 0.98340
 0.37100 0.98556
 0.37200 0.98804
 0.37300 0.99064
 0.37400 0.99308
 0.37500 0.99524
 0.37600 0.99700
 0.37700 0.99844
 0.37800 0.99972
 0.37900 1.00100
 0.38000 1.00248
 0.38100 1.00436
 0.38200 1.00668
 0.38300 1.00944
 0.38400 1.01244
 0.38500 1.01552
 0.38600 1.01852
 0.38700 1.02144
 0.38800 1.02428
 0.38900 1.02712
 0.39000 1.02992
 0.39100 1.03264
 0.39200 1.03528
 0.39300 1.03768
 0.39400 1.03984
 0.39500 1.04168
 0.39600 1.04300
 0.39700 1.04360
 0.39800 1.04352
 0.39900 1.04272
 0.40000 1.04144
 0.40100 1.03992
 0.40200 1.03836
 0.40300 1.03692
 0.40400 1.03564
 0.40500 1.03456
 0.40600 1.03356
 0.40700 1.03244
 0.40800 1.03112
 0.40900 1.02956
 0.41000 1.02776
 0.41100 1.02584
 0.41200 1.02388
 0.41300 1.02192
 0.41400 1.02000
 0.41500 1.01808
 0.41600 1.01608
 0.41700 1.01388
 0.41800 1.01144
 0.41900 1.00872
 0.42000 1.00596
 0.42100 1.00328
 0.42200 1.00100
 0.42300 0.99924
 0.42400 0.99808
 0.42500 0.99736
 0.42600 0.99692
 0.42700 0.99640
 0.42800 0.99564
 0.42900 0.99444
 0.43000 0.99288
 0.43100 0.99112
 0.43200 0.98936
 0.43300 0.98784
 0.43400 0.98672
 0.43500 0.98604
 0.43600 0.98568
 0.43700 0.98560
 0.43800 0.98560
 0.43900 0.98556
 0.44000 0.98536
 0.44100 0.98496
 0.44200 0.98440
 0.44300 0.98364
 0.44400 0.98272
 0.44500 0.98164
 0.44600 0.98056
 0.44700 0.97944
 0.44800 0.97840
 0.44900 0.97740
 0.45000 0.97632
 0.45100 0.97508
 0.45200 0.97360
 0.45300 0.97196
 0.45400 0.97016
 0.45500 0.96836
 0.45600 0.96656
 0.45700 0.96476
 0.45800 0.96292
 0.45900 0.96080
 0.46000 0.95832
 0.46100 0.95536
 0.46200 0.95196
 0.46300 0.94832
 0.46400 0.94476
 0.46500 0.94164
 0.46600 0.93920
 0.46700 0.93744
 0.46800 0.93620
 0.46900 0.93524
 0.47000 0.93428
 0.47100 0.93312
 0.47200 0.93172
 0.47300 0.93004
 0.47400 0.92828
 0.47500 0.92660
 0.47600 0.92516
 0.47700 0.92400
 0.47800 0.92312
 0.47900 0.92236
 0.48000 0.92152
 0.48100 0.92032
 0.48200 0.91856
 0.48300 0.91620
 0.48400 0.91348
 0.48500 0.91064
 0.48600 0.90800
 0.48700 0.90580
 0.48800 0.90408
 0.48900 0.90264
 0.49000 0.90124
 0.49100 0.89960
 0.49200 0.89748
 0.49300 0.89476
 0.49400 0.89152
 0.49500 0.88796
 0.49600 0.88432
 0.49700 0.88088
 0.49800 0.87776
 0.49900 0.87504
 0.50000 0.87272
 0.50100 0.87068
 0.50200 0.86880
 0.50300 0.86704
 0.50400 0.86532
 0.50500 0.86360
 0.50600 0.86192
 0.50700 0.86044
 0.50800 0.85924
 0.50900 0.85836
 0.51000 0.85776
 0.51100 0.85720
 0.51200 0.85648
 0.51300 0.85532
 0.51400 0.85360
 0.51500 0.85144
 0.51600 0.84904
 0.51700 0.84668
 0.51800 0.84468
 0.51900 0.84336
 0.52000 0.84280
 0.52100 0.84300
 0.52200 0.84372
 0.52300 0.84460
 0.52400 0.84532
 0.52500 0.84556
 0.52600 0.84520
 0.52700 0.84432
 0.52800 0.84312
 0.52900 0.84188
 0.53000 0.84088
 0.53100 0.84024
 0.53200 0.83984
 0.53300 0.83956
 0.53400 0.83928
 0.53500 0.83880
 0.53600 0.83812
 0.53700 0.83724
 0.53800 0.83624
 0.53900 0.83536
 0.54000 0.83480
 0.54100 0.83464
 0.54200 0.83496
 0.54300 0.83544
 0.54400 0.83584
 0.54500 0.83576
 0.54600 0.83504
 0.54700 0.83360
 0.54800 0.83164
 0.54900 0.82952
 0.55000 0.82748
 0.55100 0.82576
 0.55200 0.82456
 0.55300 0.82372
 0.55400 0.82320
 0.55500 0.82268
 0.55600 0.82208
 0.55700 0.82128
 0.55800 0.82036
 0.55900 0.81952
 0.56000 0.81888
 0.56100 0.81856
 0.56200 0.81868
 0.56300 0.81916
 0.56400 0.81984
 0.56500 0.82064
 0.56600 0.82136
 0.56700 0.82188
 0.56800 0.82208
 0.56900 0.82196
 0.57000 0.82160
 0.57100 0.82096
 0.57200 0.82024
 0.57300 0.81952
 0.57400 0.81884
 0.57500 0.81824
 0.57600 0.81756
 0.57700 0.81688
 0.57800 0.81604
 0.57900 0.81508
 0.58000 0.81408
 0.58100 0.81304
 0.58200 0.81204
 0.58300 0.81116
 0.58400 0.81044
 0.58500 0.80984
 0.58600 0.80936
 0.58700 0.80892
 0.58800 0.80848
 0.58900 0.80800
 0.59000 0.80748
 0.59100 0.80684
 0.59200 0.80616
 0.59300 0.80544
 0.59400 0.80472
 0.59500 0.80404
 0.59600 0.80336
 0.59700 0.80260
 0.59800 0.80168
 0.59900 0.80060
 0.60000 0.79932
 0.60100 0.79796
 0.60200 0.79668
 0.60300 0.79560
 0.60400 0.79488
 0.60500 0.79456
 0.60600 0.79468
 0.60700 0.79516
 0.60800 0.79580
 0.60900 0.79652
 0.61000 0.79716
 0.61100 0.79772
 0.61200 0.79824
 0.61300 0.79880
 0.61400 0.79948
 0.61500 0.80044
 0.61600 0.80160
 0.61700 0.80296
 0.61800 0.80440
 0.61900 0.80580
 0.62000 0.80708
 0.62100 0.80816
 0.62200 0.80908
 0.62300 0.80980
 0.62400 0.81048
 0.62500 0.81116
 0.62600 0.81196
 0.62700 0.81280
 0.62800 0.81376
 0.62900 0.81460
 0.63000 0.81520
 0.63100 0.81532
 0.63200 0.81484
 0.63300 0.81360
 0.63400 0.81176
 0.63500 0.80940
 0.63600 0.80664
 0.63700 0.80368
 0.63800 0.80068
 0.63900 0.79772
 0.64000 0.79500
 0.64100 0.79264
 0.64200 0.79084
 0.64300 0.78968
 0.64400 0.78912
 0.64500 0.78912
 0.64600 0.78948
 0.64700 0.79004
 0.64800 0.79060
 0.64900 0.79108
 0.65000 0.79140
 0.65100 0.79160
 0.65200 0.79168
 0.65300 0.79160
 0.65400 0.79128
 0.65500 0.79068
 0.65600 0.78976
 0.65700 0.78852
 0.65800 0.78708
 0.65900 0.78552
 0.66000 0.78396
 0.66100 0.78252
 0.66200 0.78124
 0.66300 0.78012
 0.66400 0.77916
 0.66500 0.77824
 0.66600 0.77740
 0.66700 0.77652
 0.66800 0.77580
 0.66900 0.77524
 0.67000 0.77496
 0.67100 0.77504
 0.67200 0.77552
 0.67300 0.77624
 0.67400 0.77712
 0.67500 0.77804
 0.67600 0.77892
 0.67700 0.77964
 0.67800 0.78024
 0.67900 0.78068
 0.68000 0.78096
 0.68100 0.78108
 0.68200 0.78092
 0.68300 0.78048
 0.68400 0.77968
 0.68500 0.77844
 0.68600 0.77676
 0.68700 0.77480
 0.68800 0.77264
 0.68900 0.77048
 0.69000 0.76840
 0.69100 0.76656
 0.69200 0.76504
 0.69300 0.76388
 0.69400 0.76312
 0.69500 0.76264
 0.69600 0.76244
 0.69700 0.76232
 0.69800 0.76224
 0.69900 0.76212
 0.70000 0.76184
 0.70100 0.76148
 0.70200 0.76100
 0.70300 0.76044
 0.70400 0.75984
 0.70500 0.75920
 0.70600 0.75856
 0.70700 0.75788
 0.70800 0.75708
 0.70900 0.75624
 0.71000 0.75520
 0.71100 0.75404
 0.71200 0.75268
 0.71300 0.75116
 0.71400 0.74952
 0.71500 0.74780
 0.71600 0.74608
 0.71700 0.74436
 0.71800 0.74272
 0.71900 0.74124
 0.72000 0.73996
 0.72100 0.73892
 0.72200 0.73820
 0.72300 0.73772
 0.72400 0.73740
 0.72500 0.73712
 0.72600 0.73672
 0.72700 0.73612
 0.72800 0.73528
 0.72900 0.73428
 0.73000 0.73324
 0.73100 0.73232
 0.73200 0.73160
 0.73300 0.73120
 0.73400 0.73096
 0.73500 0.73076
 0.73600 0.73048
 0.73700 0.73004
 0.73800 0.72944
 0.73900 0.72868
 0.74000 0.72800
 0.74100 0.72752
 0.74200 0.72740
 0.74300 0.72760
 0.74400 0.72804
 0.74500 0.72844
 0.74600 0.72860
 0.74700 0.72836
 0.74800 0.72772
 0.74900 0.72668
 0.75000 0.72544
 0.75100 0.72404
 0.75200 0.72264
 0.75300 0.72132
 0.75400 0.72016
 0.75500 0.71916
 0.75600 0.71820
 0.75700 0.71732
 0.75800 0.71644
 0.75900 0.71560
 0.76000 0.71480
 0.76100 0.71404
 0.76200 0.71332
 0.76300 0.71260
 0.76400 0.71180
 0.76500 0.71084
 0.76600 0.70976
 0.76700 0.70856
 0.76800 0.70724
 0.76900 0.70576
 0.77000 0.70424
 0.77100 0.70260
 0.77200 0.70100
 0.77300 0.69956
 0.77400 0.69836
 0.77500 0.69748
 0.77600 0.69696
 0.77700 0.69664
 0.77800 0.69636
 0.77900 0.69596
 0.78000 0.69528
 0.78100 0.69428
 0.78200 0.69300
 0.78300 0.69152
 0.78400 0.69000
 0.78500 0.68860
 0.78600 0.68736
 0.78700 0.68640
 0.78800 0.68568
 0.78900 0.68508
 0.79000 0.68460
 0.79100 0.68424
 0.79200 0.68400
 0.79300 0.68392
 0.79400 0.68408
 0.79500 0.68436
 0.79600 0.68476
 0.79700 0.68516
 0.79800 0.68540
 0.79900 0.68544
 0.80000 0.68516
 0.80100 0.68460
 0.80200 0.68388
 0.80300 0.68300
 0.80400 0.68208
 0.80500 0.68112
 0.80600 0.68000
 0.80700 0.67872
 0.80800 0.67720
 0.80900 0.67540
 0.81000 0.67336
 0.81100 0.67112
 0.81200 0.66880
 0.81300 0.66644
 0.81400 0.66408
 0.81500 0.66176
 0.81600 0.65952
 0.81700 0.65740
 0.81800 0.65540
 0.81900 0.65356
 0.82000 0.65184
 0.82100 0.65020
 0.82200 0.64860
 0.82300 0.64704
 0.82400 0.64556
 0.82500 0.64416
 0.82600 0.64292
 0.82700 0.64180
 0.82800 0.64092
 0.82900 0.64024
 0.83000 0.63968
 0.83100 0.63924
 0.83200 0.63880
 0.83300 0.63828
 0.83400 0.63764
 0.83500 0.63688
 0.83600 0.63600
 0.83700 0.63508
 0.83800 0.63412
 0.83900 0.63316
 0.84000 0.63220
 0.84100 0.63120
 0.84200 0.63012
 0.84300 0.62892
 0.84400 0.62768
 0.84500 0.62644
 0.84600 0.62528
 0.84700 0.62420
 0.84800 0.62328
 0.84900 0.62248
 0.85000 0.62172
 0.85100 0.62104
 0.85200 0.62036
 0.85300 0.61964
 0.85400 0.61884
 0.85500 0.61796
 0.85600 0.61700
 0.85700 0.61588
 0.85800 0.61464
 0.85900 0.61332
 0.86000 0.61200
 0.86100 0.61080
 0.86200 0.60976
 0.86300 0.60892
 0.86400 0.60828
 0.86500 0.60776
 0.86600 0.60732
 0.86700 0.60700
 0.86800 0.60688
 0.86900 0.60708
 0.87000 0.60764
 0.87100 0.60860
 0.87200 0.60984
 0.87300 0.61124
 0.87400 0.61256
 0.87500 0.61368
 0.87600 0.61448
 0.87700 0.61492
 0.87800 0.61500
 0.87900 0.61480
 0.88000 0.61432
 0.88100 0.61364
 0.88200 0.61280
 0.88300 0.61180
 0.88400 0.61068
 0.88500 0.60944
 0.88600 0.60816
 0.88700 0.60684
 0.88800 0.60552
 0.88900 0.60428
 0.89000 0.60312
 0.89100 0.60200
 0.89200 0.60088
 0.89300 0.59984
 0.89400 0.59876
 0.89500 0.59768
 0.89600 0.59664
 0.89700 0.59556
 0.89800 0.59448
 0.89900 0.59336
 0.90000 0.59228
 0.90100 0.59112
 0.90200 0.58980
 0.90300 0.58828
 0.90400 0.58644
 0.90500 0.58424
 0.90600 0.58180
 0.90700 0.57912
 0.90800 0.57640
 0.90900 0.57368
 0.91000 0.57108
 0.91100 0.56864
 0.91200 0.56640
 0.91300 0.56436
 0.91400 0.56256
 0.91500 0.56100
 0.91600 0.55964
 0.91700 0.55852
 0.91800 0.55760
 0.91900 0.55684
 0.92000 0.55612
 0.92100 0.55544
 0.92200 0.55472
 0.92300 0.55396
 0.92400 0.55312
 0.92500 0.55220
 0.92600 0.55120
 0.92700 0.55028
 0.92800 0.54948
 0.92900 0.54888
 0.93000 0.54840
 0.93100 0.54804
 0.93200 0.54776
 0.93300 0.54744
 0.93400 0.54704
 0.93500 0.54660
 0.93600 0.54604
 0.93700 0.54544
 0.93800 0.54480
 0.93900 0.54412
 0.94000 0.54344
 0.94100 0.54272
 0.94200 0.54188
 0.94300 0.54088
 0.94400 0.53956
 0.94500 0.53792
 0.94600 0.53600
 0.94700 0.53388
 0.94800 0.53176
 0.94900 0.52976
 0.95000 0.52792
 0.95100 0.52628
 0.95200 0.52476
 0.95300 0.52324
 0.95400 0.52172
 0.95500 0.52016
 0.95600 0.51864
 0.95700 0.51716
 0.95800 0.51580
 0.95900 0.51452
 0.96000 0.51336
 0.96100 0.51224
 0.96200 0.51120
 0.96300 0.51016
 0.96400 0.50908
 0.96500 0.50792
 0.96600 0.50672
 0.96700 0.50544
 0.96800 0.50412
 0.96900 0.50280
 0.97000 0.50148
 0.97100 0.50020
 0.97200 0.49896
 0.97300 0.49772
 0.97400 0.49652
 0.97500 0.49532
 0.97600 0.49424
 0.97700 0.49316
 0.97800 0.49212
 0.97900 0.49108
 0.98000 0.49004
 0.98100 0.48896
 0.98200 0.48784
 0.98300 0.48672
 0.98400 0.48560
 0.98500 0.48452
 0.98600 0.48348
 0.98700 0.48248
 0.98800 0.48148
 0.98900 0.48052
 0.99000 0.47952
 0.99100 0.47844
 0.99200 0.47732
 0.99300 0.47612
 0.99400 0.47484
 0.99500 0.47348
 0.99600 0.47212
 0.99700 0.47072
 0.99800 0.46936
 0.99900 0.46808
 1.00000 0.46688
 1.00100 0.46576
 1.00200 0.46468
 1.00300 0.46368
 1.00400 0.46268
 1.00500 0.46176
 1.00600 0.46092
 1.00700 0.46020
 1.00800 0.45968
 1.00900 0.45932
 1.01000 0.45908
 1.01100 0.45892
 1.01200 0.45876
 1.01300 0.45852
 1.01400 0.45820
 1.01500 0.45776
 1.01600 0.45724
 1.01700 0.45660
 1.01800 0.45584
 1.01900 0.45492
 1.02000 0.45392
 1.02100 0.45276
 1.02200 0.45152
 1.02300 0.45024
 1.02400 0.44884
 1.02500 0.44740
 1.02600 0.44596
 1.02700 0.44452
 1.02800 0.44312
 1.02900 0.44172
 1.03000 0.44036
 1.03100 0.43888
 1.03200 0.43724
 1.03300 0.43544
 1.03400 0.43348
 1.03500 0.43148
 1.03600 0.42952
 1.03700 0.42772
 1.03800 0.42616
 1.03900 0.42492
 1.04000 0.42400
 1.04100 0.42332
 1.04200 0.42284
 1.04300 0.42248
 1.04400 0.42216
 1.04500 0.42188
 1.04600 0.42152
 1.04700 0.42108
 1.04800 0.42060
 1.04900 0.42008
 1.05000 0.41964
 1.05100 0.41928
 1.05200 0.41904
 1.05300 0.41880
 1.05400 0.41856
 1.05500 0.41820
 1.05600 0.41776
 1.05700 0.41716
 1.05800 0.41652
 1.05900 0.41592
 1.06000 0.41540
 1.06100 0.41500
 1.06200 0.41464
 1.06300 0.41420
 1.06400 0.41364
 1.06500 0.41284
 1.06600 0.41180
 1.06700 0.41056
 1.06800 0.40924
 1.06900 0.40792
 1.07000 0.40664
 1.07100 0.40548
 1.07200 0.40440
 1.07300 0.40332
 1.07400 0.40216
 1.07500 0.40096
 1.07600 0.39968
 1.07700 0.39836
 1.07800 0.39704
 1.07900 0.39572
 1.08000 0.39440
 1.08100 0.39308
 1.08200 0.39180
 1.08300 0.39060
 1.08400 0.38940
 1.08500 0.38828
 1.08600 0.38720
 1.08700 0.38616
 1.08800 0.38512
 1.08900 0.38408
 1.09000 0.38304
 1.09100 0.38200
 1.09200 0.38096
 1.09300 0.37996
 1.09400 0.37904
 1.09500 0.37816
 1.09600 0.37724
 1.09700 0.37632
 1.09800 0.37536
 1.09900 0.37432
