# Spinless fermions Hamiltonian with random disorder and nearest neighbour interactions
# L=8x8 (size), J=0.5 (hoping amplitude), V=0.5 (interaction), W/J=6 (disorder strength), N=30 (disorder realizations), T=25 (number of trajectories)
# Evolution of Imbalance in time (fTWA method)
# time t, Imbalance I

   0.00000000000000000   1.00000000000000000
   0.10000000000000001   0.99056149447223285
   0.20000000000000001   0.96433140110519178
   0.30000000000000004   0.92357609177791844
   0.40000000000000002   0.87162802331273925
   0.50000000000000000   0.81235589128816654
   0.59999999999999998   0.74961040039069693
   0.69999999999999996   0.68676247191904216
   0.79999999999999993   0.62640746791858293
   0.89999999999999991   0.57025599153418804
   0.99999999999999989   0.51919028459757222
   1.09999999999999987   0.47343903671279319
   1.19999999999999996   0.43280891631044682
   1.30000000000000004   0.39690921013181774
   1.40000000000000013   0.36532039208711847
   1.50000000000000022   0.33768578663626159
   1.60000000000000031   0.31373507052824828
   1.70000000000000040   0.29326447193074134
   1.80000000000000049   0.27609820143720182
   1.90000000000000058   0.26204846017792277
   2.00000000000000044   0.25088583254624669
   2.10000000000000053   0.24232724276923170
   2.20000000000000062   0.23604213890188874
   2.30000000000000071   0.23167145451293272
   2.40000000000000080   0.22885164913705905
   2.50000000000000089   0.22723833555188772
   2.60000000000000098   0.22652795985538618
   2.70000000000000107   0.22647727174437857
   2.80000000000000115   0.22691715487626288
   2.90000000000000124   0.22775391276321258
   3.00000000000000133   0.22895288727939339
   3.10000000000000142   0.23050679896234416
   3.20000000000000151   0.23239892552673166
   3.30000000000000160   0.23457381526257751
   3.40000000000000169   0.23692565085161379
   3.50000000000000178   0.23930894741482814
   3.60000000000000187   0.24156855266567406
   3.70000000000000195   0.24357765339565951
   3.80000000000000204   0.24526861485777993
   3.90000000000000213   0.24664528607505884
   4.00000000000000178   0.24777414973672265
   4.10000000000000142   0.24875908396639621
   4.20000000000000107   0.24970741487936515
   4.30000000000000071   0.25069576040720326
   4.40000000000000036   0.25174566646516017
   4.50000000000000000   0.25281858046434152
   4.59999999999999964   0.25383297068261407
   4.69999999999999929   0.25469596886530088
   4.79999999999999893   0.25533599925040729
   4.89999999999999858   0.25572488331913323
   4.99999999999999822   0.25588382379999552
   5.09999999999999787   0.25587319378641254
   5.19999999999999751   0.25577072164858311
   5.29999999999999716   0.25564610844588559
   5.39999999999999680   0.25554054833019046
   5.49999999999999645   0.25545664669379287
   5.59999999999999609   0.25535999326477393
   5.69999999999999574   0.25519072660085695
   5.79999999999999538   0.25488232808422384
   5.89999999999999503   0.25438377068600782
   5.99999999999999467   0.25367928799154021
   6.09999999999999432   0.25279933606297494
   6.19999999999999396   0.25181793202162234
   6.29999999999999361   0.25083469211019055
   6.39999999999999325   0.24994482930013021
   6.49999999999999289   0.24920704255971110
   6.59999999999999254   0.24862313323122009
   6.69999999999999218   0.24813859003333161
   6.79999999999999183   0.24766210478639777
   6.89999999999999147   0.24709355227457808
   6.99999999999999112   0.24635023755854588
   7.09999999999999076   0.24538591988046241
   7.19999999999999041   0.24419967845385754
   7.29999999999999005   0.24283221338585911
   7.39999999999998970   0.24134975385234009
   7.49999999999998934   0.23982063028372644
   7.59999999999998899   0.23829277939986304
   7.69999999999998863   0.23677974679963507
   7.79999999999998828   0.23525963537888553
   7.89999999999998792   0.23368735339377747
   7.99999999999998757   0.23201567074323148
   8.09999999999998721   0.23021669344733123
   8.19999999999998685   0.22829544603004198
   8.29999999999998650   0.22629145918892071
   8.39999999999998614   0.22426904119089491
   8.49999999999998579   0.22229960997594814
   8.59999999999998543   0.22044080459513721
   8.69999999999998508   0.21871855203735197
   8.79999999999998472   0.21711926703917261
   8.89999999999998437   0.21559742225396861
   8.99999999999998401   0.21409714247137579
   9.09999999999998366   0.21257830577693096
   9.19999999999998330   0.21103478786202584
   9.29999999999998295   0.20949827434756080
   9.39999999999998259   0.20802987706487747
   9.49999999999998224   0.20670528293446352
   9.59999999999998188   0.20559658936342590
   9.69999999999998153   0.20475237009763983
   9.79999999999998117   0.20418103635799523
   9.89999999999998082   0.20384624956799366
   9.99999999999998046   0.20367955816983757
  10.09999999999998010   0.20360510859046071
  10.19999999999997975   0.20356350432213832
  10.29999999999997939   0.20352405823416647
  10.39999999999997904   0.20348393619918284
  10.49999999999997868   0.20345976338089919
  10.59999999999997833   0.20347686861847225
  10.69999999999997797   0.20355738169726767
  10.79999999999997762   0.20370806170960820
  10.89999999999997726   0.20391210827238024
  10.99999999999997691   0.20412963327064201
  11.09999999999997655   0.20430684590359760
  11.19999999999997620   0.20439001375435306
  11.29999999999997584   0.20434030822431526
  11.39999999999997549   0.20414634265361906
  11.49999999999997513   0.20383010192276629
  11.59999999999997478   0.20344220906400906
  11.69999999999997442   0.20304724922579007
  11.79999999999997407   0.20270604304896808
  11.89999999999997371   0.20246278382646032
  11.99999999999997335   0.20233921969321306
  12.09999999999997300   0.20233227145963906
  12.19999999999997264   0.20241241646591845
  12.29999999999997229   0.20252557073785749
  12.39999999999997193   0.20260283026587073
  12.49999999999997158   0.20257707044318113
  12.59999999999997122   0.20239858860940652
  12.69999999999997087   0.20204095079004877
  12.79999999999997051   0.20149444380377074
  12.89999999999997016   0.20075310119616646
  12.99999999999996980   0.19980542252588593
  13.09999999999996945   0.19863544318343360
  13.19999999999996909   0.19723330879921153
  13.29999999999996874   0.19560965244237208
  13.39999999999996838   0.19380812248652055
  13.49999999999996803   0.19191150706441767
  13.59999999999996767   0.19003622442627255
  13.69999999999996732   0.18831103596021170
  13.79999999999996696   0.18684318742400380
  13.89999999999996660   0.18568526277083491
  13.99999999999996625   0.18481920795579959
  14.09999999999996589   0.18416590789798737
  14.19999999999996554   0.18361533410839706
  14.29999999999996518   0.18306319073886454
  14.39999999999996483   0.18243985151328310
  14.49999999999996447   0.18172370841136024
  14.59999999999996412   0.18093798505549619
  14.69999999999996376   0.18013422986118727
  14.79999999999996341   0.17936837371828884
  14.89999999999996305   0.17867749419058770
  14.99999999999996270   0.17806500939036204
  15.09999999999996234   0.17749805351591280
  15.19999999999996199   0.17691662040878489
  15.29999999999996163   0.17625219868946870
  15.39999999999996128   0.17545222738582791
  15.49999999999996092   0.17450368702722410
  15.59999999999996056   0.17344643777906696
  15.69999999999996021   0.17236869331108864
  15.79999999999995985   0.17138424201440661
  15.89999999999995950   0.17059903342771252
  15.99999999999995914   0.17007850227058480
  16.09999999999995879   0.16982647626645955
  16.19999999999996021   0.16978389314265174
  16.29999999999996163   0.16985018849588085
  16.39999999999996305   0.16992095413843775
  16.49999999999996447   0.16992634133726389
  16.59999999999996589   0.16985297590432313
  16.69999999999996732   0.16974061049441749
  16.79999999999996874   0.16965763073285153
  16.89999999999997016   0.16966780110227236
  16.99999999999997158   0.16980083853587247
  17.09999999999997300   0.17003574578659608
  17.19999999999997442   0.17030224163483917
  17.29999999999997584   0.17050093116930751
  17.39999999999997726   0.17053591028774734
  17.49999999999997868   0.17034796777102573
  17.59999999999998010   0.16993686551573095
  17.69999999999998153   0.16936650633907571
  17.79999999999998295   0.16875225393985391
  17.89999999999998437   0.16823295990951459
  17.99999999999998579   0.16793373501941150
  18.09999999999998721   0.16793005137868736
  18.19999999999998863   0.16822517596900649
  18.29999999999999005   0.16874795792534170
  18.39999999999999147   0.16937005434668836
  18.49999999999999289   0.16993600496457542
  18.59999999999999432   0.17029749221048898
  18.69999999999999574   0.17034393576656634
  18.79999999999999716   0.17002445041335199
  18.89999999999999858   0.16935847104139887
  19.00000000000000000   0.16843195551840343
  19.10000000000000142   0.16737621812577638
  19.20000000000000284   0.16633162067749610
  19.30000000000000426   0.16540698483333763
  19.40000000000000568   0.16465057389493923
  19.50000000000000711   0.16404446818867269
  19.60000000000000853   0.16352287818997785
  19.70000000000000995   0.16300404983093669
  19.80000000000001137   0.16242134016230941
  19.90000000000001279   0.16174232693894380
  20.00000000000001421   0.16097204077409852
  20.10000000000001563   0.16014357610942428
  20.20000000000001705   0.15930309569058737
  20.30000000000001847   0.15849565322270096
  20.40000000000001990   0.15775556003601834
  20.50000000000002132   0.15710224179023063
  20.60000000000002274   0.15653937182825717
  20.70000000000002416   0.15605283172366125
  20.80000000000002558   0.15560563408209765
  20.90000000000002700   0.15513500781250009
  21.00000000000002842   0.15456060757182721
  21.10000000000002984   0.15380700972396943
  21.20000000000003126   0.15283295852594445
  21.30000000000003268   0.15165434412076004
  21.40000000000003411   0.15035059546440435
  21.50000000000003553   0.14905007166958012
  21.60000000000003695   0.14789592465631554
  21.70000000000003837   0.14700109695924349
  21.80000000000003979   0.14640861678967027
  21.90000000000004121   0.14607482435841843
  22.00000000000004263   0.14588410398993795
  22.10000000000004405   0.14568916984300956
  22.20000000000004547   0.14536132351838973
  22.30000000000004690   0.14483431568023428
  22.40000000000004832   0.14412888595381163
  22.50000000000004974   0.14334916032041145
  22.60000000000005116   0.14264932435593430
  22.70000000000005258   0.14218104855971911
  22.80000000000005400   0.14204269111799511
  22.90000000000005542   0.14225036218919845
  23.00000000000005684   0.14273782462813850
  23.10000000000005826   0.14337855557391121
  23.20000000000005969   0.14401919195262100
  23.30000000000006111   0.14451589507659662
  23.40000000000006253   0.14476595273244300
  23.50000000000006395   0.14472664946793320
  23.60000000000006537   0.14441747203346850
  23.70000000000006679   0.14390862341599775
  23.80000000000006821   0.14330201629169889
  23.90000000000006963   0.14270873756569358
  24.00000000000007105   0.14222453466124596
  24.10000000000007248   0.14190666183423983
  24.20000000000007390   0.14175967679888402
  24.30000000000007532   0.14173779445222720
  24.40000000000007674   0.14176363018277341
  24.50000000000007816   0.14175371154721342
  24.60000000000007958   0.14163941520854106
  24.70000000000008100   0.14137865447774184
  24.80000000000008242   0.14096068892343935
  24.90000000000008384   0.14040736700287659
  25.00000000000008527   0.13977008222599599
  25.10000000000008669   0.13911911743428659
  25.20000000000008811   0.13852557523965425
  25.30000000000008953   0.13804281959476783
  25.40000000000009095   0.13769629405065467
  25.50000000000009237   0.13748462350705687
  25.60000000000009379   0.13738695407880674
  25.70000000000009521   0.13736916980399452
  25.80000000000009663   0.13738637677880977
  25.90000000000009805   0.13738549319643320
  26.00000000000009948   0.13731286760579570
  26.10000000000010090   0.13712619642778956
  26.20000000000010232   0.13680417062442893
  26.30000000000010374   0.13634851863922903
  26.40000000000010516   0.13577991433915493
  26.50000000000010658   0.13513305627562489
  26.60000000000010800   0.13445297162902228
  26.70000000000010942   0.13379003078047008
  26.80000000000011084   0.13319199236706711
  26.90000000000011227   0.13269585281073920
  27.00000000000011369   0.13232399094711914
  27.10000000000011511   0.13208599824489334
  27.20000000000011653   0.13198295271461055
  27.30000000000011795   0.13200928195201017
  27.40000000000011937   0.13215069995199274
  27.50000000000012079   0.13238198352886082
  27.60000000000012221   0.13266962490891204
  27.70000000000012363   0.13297966750690396
  27.80000000000012506   0.13328572981032660
  27.90000000000012648   0.13357250395297068
  28.00000000000012790   0.13383471656854948
  28.10000000000012932   0.13407432531857669
  28.20000000000013074   0.13429757541849843
  28.30000000000013216   0.13451229377469390
  28.40000000000013358   0.13472616782503213
  28.50000000000013500   0.13494602273917400
  28.60000000000013642   0.13517589535884889
  28.70000000000013785   0.13541194381252139
  28.80000000000013927   0.13563630644651345
  28.90000000000014069   0.13581534561138897
  29.00000000000014211   0.13590547481090587
  29.10000000000014353   0.13586334903301583
  29.20000000000014495   0.13565307134922103
  29.30000000000014637   0.13524586299344188
  29.40000000000014779   0.13461504977657288
  29.50000000000014921   0.13373399628382762
  29.60000000000015064   0.13258268696382283
  29.70000000000015206   0.13116277492299941
  29.80000000000015348   0.12951522978944838
  29.90000000000015490   0.12773084530311704
  30.00000000000015632   0.12594415507320830
  30.10000000000015774   0.12430840827994878
  30.20000000000015916   0.12295985037409431
  30.30000000000016058   0.12198506054141821
  30.40000000000016200   0.12140198811320234
  30.50000000000016342   0.12115893622413813
  30.60000000000016485   0.12115131260085341
  30.70000000000016627   0.12125240095367566
  30.80000000000016769   0.12134937359685814
  30.90000000000016911   0.12137181335383238
  31.00000000000017053   0.12130185114412401
  31.10000000000017195   0.12116318938176213
  31.20000000000017337   0.12099600275147727
  31.30000000000017479   0.12083025294366977
  31.40000000000017621   0.12066905423100593
  31.50000000000017764   0.12048790275667302
  31.60000000000017906   0.12024817808157112
  31.70000000000018048   0.11991765611087853
  31.80000000000018190   0.11948927926463074
  31.90000000000018332   0.11899174384693023
  32.00000000000018474   0.11848824309462801
  32.10000000000018616   0.11806142748670923
  32.20000000000018758   0.11778646564070253
  32.30000000000018900   0.11770174006168975
  32.40000000000019043   0.11779232404741120
  32.50000000000019185   0.11799689449815806
  32.60000000000019327   0.11823475232016187
  32.70000000000019469   0.11843683134550759
  32.80000000000019611   0.11856337651808349
  32.90000000000019753   0.11860184929429429
  33.00000000000019895   0.11855270696026783
  33.10000000000020037   0.11841766379635169
  33.20000000000020179   0.11820005493391163
  33.30000000000020322   0.11791444199021561
  33.40000000000020464   0.11759390676291491
  33.50000000000020606   0.11728613064388956
  33.60000000000020748   0.11703932577053330
  33.70000000000020890   0.11688648458675359
  33.80000000000021032   0.11683608924423118
  33.90000000000021174   0.11687167611952089
  34.00000000000021316   0.11695701235223316
  34.10000000000021458   0.11704255094687835
  34.20000000000021600   0.11707255722013736
  34.30000000000021743   0.11699588236964166
  34.40000000000021885   0.11678112884269132
  34.50000000000022027   0.11643029735359985
  34.60000000000022169   0.11598220593515449
  34.70000000000022311   0.11550243535601724
  34.80000000000022453   0.11506446539822458
  34.90000000000022595   0.11472948668458249
  35.00000000000022737   0.11453017472969229
  35.10000000000022879   0.11446177022689036
  35.20000000000023022   0.11448372603586920
  35.30000000000023164   0.11453336240300398
  35.40000000000023306   0.11454753453891256
  35.50000000000023448   0.11448339040189998
  35.60000000000023590   0.11432993232669786
  35.70000000000023732   0.11410790678896793
  35.80000000000023874   0.11386137868592335
  35.90000000000024016   0.11364585858401009
  36.00000000000024158   0.11351554527077141
  36.10000000000024301   0.11351022057247814
  36.20000000000024443   0.11364317896283484
  36.30000000000024585   0.11389378600225962
  36.40000000000024727   0.11420858207916225
  36.50000000000024869   0.11451212221649718
  36.60000000000025011   0.11472467810928108
  36.70000000000025153   0.11478114568928149
  36.80000000000025295   0.11464535530558247
  36.90000000000025437   0.11431597813416235
  37.00000000000025580   0.11382284134302870
  37.10000000000025722   0.11321504617846528
  37.20000000000025864   0.11254516126727426
  37.30000000000026006   0.11185572454971204
  37.40000000000026148   0.11117269929597424
  37.50000000000026290   0.11050575907257189
  37.60000000000026432   0.10985169202568033
  37.70000000000026574   0.10919803502699335
  37.80000000000026716   0.10852754560515766
  37.90000000000026859   0.10782578879371571
  38.00000000000027001   0.10709154101373793
  38.10000000000027143   0.10634530407303562
  38.20000000000027285   0.10563010865606161
  38.30000000000027427   0.10500285005032936
  38.40000000000027569   0.10451979867231387
  38.50000000000027711   0.10422182366495644
  38.60000000000027853   0.10412319039231828
  38.70000000000027995   0.10420597628169935
  38.80000000000028137   0.10442141712599128
  38.90000000000028280   0.10469818079904016
  39.00000000000028422   0.10495524732383305
  39.10000000000028564   0.10511592651255068
  39.20000000000028706   0.10512048728874650
  39.30000000000028848   0.10493578598994245
  39.40000000000028990   0.10455995953195558
  39.50000000000029132   0.10402054372456288
  39.60000000000029274   0.10336663913662295
  39.70000000000029416   0.10265813478162263
  39.80000000000029559   0.10195506852441216
  39.90000000000029701   0.10130853239837732
  40.00000000000029843   0.10075403121919448
  40.10000000000029985   0.10030929992151073
  40.20000000000030127   0.09997778886022199
  40.30000000000030269   0.09975477106042738
  40.40000000000030411   0.09963034961367949
  40.50000000000030553   0.09958789528593792
  40.60000000000030695   0.09960350090581539
  40.70000000000030838   0.09965242664744864
  40.80000000000030980   0.09972087764665853
  40.90000000000031122   0.09981469367443070
  41.00000000000031264   0.09995746465565922
  41.10000000000031406   0.10017718040432032
  41.20000000000031548   0.10048746987058496
  41.30000000000031690   0.10087305708594418
  41.40000000000031832   0.10128710230585324
  41.50000000000031974   0.10166144834858604
  41.60000000000032117   0.10192452064761602
  41.70000000000032259   0.10202025572663749
  41.80000000000032401   0.10192343309166353
  41.90000000000032543   0.10164758723745895
  42.00000000000032685   0.10124149429824106
  42.10000000000032827   0.10077367010123552
  42.20000000000032969   0.10031118375581734
  42.30000000000033111   0.09990252296539577
  42.40000000000033253   0.09957033346395537
  42.50000000000033396   0.09931340617222471
  42.60000000000033538   0.09911458091456182
