# Spinless fermions Hamiltonian with random disorder and nearest neighbour interactions
# L=8x8 (size), J=0.5 (hoping amplitude), V=0.5 (interaction), W/J=10 (disorder strength), N=30 (disorder realizations), T=25 (number of trajectories)
# Evolution of Imbalance in time (fTWA method)
# time t, Imbalance I

   0.00000000000000000   1.00000000000000000
   0.10000000000000001   0.99080145193780300
   0.20000000000000001   0.96610918514430355
   0.30000000000000004   0.93004950764863592
   0.40000000000000002   0.88769583683005571
   0.50000000000000000   0.84346693370792458
   0.59999999999999998   0.80014251028907013
   0.69999999999999996   0.75879994235851655
   0.79999999999999993   0.71945231861574221
   0.89999999999999991   0.68184935242279854
   0.99999999999999989   0.64597754182519995
   1.09999999999999987   0.61213062722605061
   1.19999999999999996   0.58071273468899187
   1.30000000000000004   0.55201771650408937
   1.40000000000000013   0.52612913081259161
   1.50000000000000022   0.50293945740857737
   1.60000000000000031   0.48222631159247614
   1.70000000000000040   0.46374772578550133
   1.80000000000000049   0.44733612613668983
   1.90000000000000058   0.43295944296179650
   2.00000000000000044   0.42071321507332460
   2.10000000000000053   0.41073001000191417
   2.20000000000000062   0.40304725050521650
   2.30000000000000071   0.39751479964375697
   2.40000000000000080   0.39379131252050176
   2.50000000000000089   0.39141962976569822
   2.60000000000000098   0.38995239369806695
   2.70000000000000107   0.38908349571525391
   2.80000000000000115   0.38871588219866771
   2.90000000000000124   0.38892360295589373
   3.00000000000000133   0.38983644737355555
   3.10000000000000142   0.39151162703614151
   3.20000000000000151   0.39385149629896932
   3.30000000000000160   0.39661123650399221
   3.40000000000000169   0.39949897093000014
   3.50000000000000178   0.40230456688534416
   3.60000000000000187   0.40496582978254808
   3.70000000000000195   0.40753479153626720
   3.80000000000000204   0.41009164306896762
   3.90000000000000213   0.41268017463089463
   4.00000000000000178   0.41529655424448236
   4.10000000000000142   0.41791411854517857
   4.20000000000000107   0.42051098150458482
   4.30000000000000071   0.42308009261724555
   4.40000000000000036   0.42562240258471146
   4.50000000000000000   0.42813623463261458
   4.59999999999999964   0.43061196992158263
   4.69999999999999929   0.43303119262707834
   4.79999999999999893   0.43536981489810617
   4.89999999999999858   0.43760880243331968
   4.99999999999999822   0.43974741558144503
   5.09999999999999787   0.44180516939276865
   5.19999999999999751   0.44380529495396998
   5.29999999999999716   0.44574399279916110
   5.39999999999999680   0.44756652120206097
   5.49999999999999645   0.44917858773817615
   5.59999999999999609   0.45048789694330338
   5.69999999999999574   0.45143489731875569
   5.79999999999999538   0.45199557996927175
   5.89999999999999503   0.45217817903296087
   5.99999999999999467   0.45202182162057070
   6.09999999999999432   0.45157612601128910
   6.19999999999999396   0.45085522038740594
   6.29999999999999361   0.44980204234851218
   6.39999999999999325   0.44831195194669221
   6.49999999999999289   0.44631702666467316
   6.59999999999999254   0.44387007788120308
   6.69999999999999218   0.44116203103180035
   6.79999999999999183   0.43845313201758229
   6.89999999999999147   0.43595016010338872
   6.99999999999999112   0.43369978473499404
   7.09999999999999076   0.43157173180021369
   7.19999999999999041   0.42934745529393670
   7.29999999999999005   0.42685114069249136
   7.39999999999998970   0.42403860555746042
   7.49999999999998934   0.42100466268295728
   7.59999999999998899   0.41792758505480188
   7.69999999999998863   0.41499131226195102
   7.79999999999998828   0.41231234581824849
   7.89999999999998792   0.40989727109432933
   7.99999999999998757   0.40766293993343866
   8.09999999999998721   0.40551326602601140
   8.19999999999998685   0.40341915431806064
   8.29999999999998650   0.40145066506567251
   8.39999999999998614   0.39973776972976027
   8.49999999999998579   0.39836594525732033
   8.59999999999998543   0.39726781756315133
   8.69999999999998508   0.39620998137078245
   8.79999999999998472   0.39491442852771974
   8.89999999999998437   0.39323162818904028
   8.99999999999998401   0.39122823983626526
   9.09999999999998366   0.38912481726895998
   9.19999999999998330   0.38714520519262308
   9.29999999999998295   0.38540529343539431
   9.39999999999998259   0.38391685835675138
   9.49999999999998224   0.38266535041707511
   9.59999999999998188   0.38166440264136325
   9.69999999999998153   0.38093955467328383
   9.79999999999998117   0.38047023339818692
   9.89999999999998082   0.38015197009861101
   9.99999999999998046   0.37982729252930914
  10.09999999999998010   0.37938119052172359
  10.19999999999997975   0.37882993614446947
  10.29999999999997939   0.37832386141906249
  10.39999999999997904   0.37806171467711214
  10.49999999999997868   0.37818918901308546
  10.59999999999997833   0.37874537884653331
  10.69999999999997797   0.37966220834756437
  10.79999999999997762   0.38079449885815991
  10.89999999999997726   0.38196596643165343
  10.99999999999997691   0.38301481333461995
  11.09999999999997655   0.38382551300162787
  11.19999999999997620   0.38435394396129663
  11.29999999999997584   0.38464662597219257
  11.39999999999997549   0.38482834767835211
  11.49999999999997513   0.38504581532333576
  11.59999999999997478   0.38539562910484920
  11.69999999999997442   0.38587421316427611
  11.79999999999997407   0.38636703420448287
  11.89999999999997371   0.38668565067484351
  11.99999999999997335   0.38665337963668706
  12.09999999999997300   0.38620019760079100
  12.19999999999997264   0.38539956020669447
  12.29999999999997229   0.38442189978437619
  12.39999999999997193   0.38344800831222930
  12.49999999999997158   0.38260628858539025
  12.59999999999997122   0.38195947224352739
  12.69999999999997087   0.38151269904853591
  12.79999999999997051   0.38120734382675647
  12.89999999999997016   0.38091287205559843
  12.99999999999996980   0.38046309276043788
  13.09999999999996945   0.37974678905428377
  13.19999999999996909   0.37879134130564163
  13.29999999999996874   0.37775763665538414
  13.39999999999996838   0.37683651075898233
  13.49999999999996803   0.37613088844889914
  13.59999999999996767   0.37561155242320765
  13.69999999999996732   0.37515665199521525
  13.79999999999996696   0.37462591369585324
  13.89999999999996660   0.37391533046537706
  13.99999999999996625   0.37296345669870029
  14.09999999999996589   0.37172776802867891
  14.19999999999996554   0.37018632356564485
  14.29999999999996518   0.36838755671144552
  14.39999999999996483   0.36649486839267359
  14.49999999999996447   0.36475835445513022
  14.59999999999996412   0.36341547215103148
  14.69999999999996376   0.36258485794874812
  14.79999999999996341   0.36221738013877008
  14.89999999999996305   0.36213046517019476
  14.99999999999996270   0.36210355580166620
  15.09999999999996234   0.36197453090953341
  15.19999999999996199   0.36167843845971892
  15.29999999999996163   0.36121453989973590
  15.39999999999996128   0.36058575195937503
  15.49999999999996092   0.35977761243950857
  15.59999999999996056   0.35879586328058821
  15.69999999999996021   0.35770827987544729
  15.79999999999995985   0.35663839352826077
  15.89999999999995950   0.35572503624779134
  15.99999999999995914   0.35507933273033626
  16.09999999999995879   0.35474038394560631
  16.19999999999996021   0.35463939187941357
  16.29999999999996163   0.35461292509977149
  16.39999999999996305   0.35448701381819925
  16.49999999999996447   0.35419616786482400
  16.59999999999996589   0.35385778217606167
  16.69999999999996732   0.35372917966121342
  16.79999999999996874   0.35405209132410731
  16.89999999999997016   0.35488357866183801
  16.99999999999997158   0.35602810272364094
  17.09999999999997300   0.35711901701860693
  17.19999999999997442   0.35781129287200975
  17.29999999999997584   0.35797149570859194
  17.39999999999997726   0.35773462853688520
  17.49999999999997868   0.35739059102635973
  17.59999999999998010   0.35718979767832781
  17.69999999999998153   0.35720207033016693
  17.79999999999998295   0.35731294480566000
  17.89999999999998437   0.35733989185322812
  17.99999999999998579   0.35716617860329580
  18.09999999999998721   0.35679747569945480
  18.19999999999998863   0.35632735226019746
  18.29999999999999005   0.35585816810101606
  18.39999999999999147   0.35542858546643386
  18.49999999999999289   0.35498662438426565
  18.59999999999999432   0.35442903411381399
  18.69999999999999574   0.35368349454611220
  18.79999999999999716   0.35277000449398105
  18.89999999999999858   0.35179214514508217
  19.00000000000000000   0.35086244318444049
  19.10000000000000142   0.35000889549430558
  19.20000000000000284   0.34912844605613380
  19.30000000000000426   0.34804298492151770
  19.40000000000000568   0.34664468656047470
  19.50000000000000711   0.34502032552637735
  19.60000000000000853   0.34343967248647223
  19.70000000000000995   0.34221267966115004
  19.80000000000001137   0.34152307114919250
  19.90000000000001279   0.34134160054260293
  20.00000000000001421   0.34146033964517697
  20.10000000000001563   0.34161296850170991
  20.20000000000001705   0.34159641337969121
  20.30000000000001847   0.34133118966597792
  20.40000000000001990   0.34084861445444670
  20.50000000000002132   0.34022704163217526
  20.60000000000002274   0.33952884572053577
  20.70000000000002416   0.33878905059504638
  20.80000000000002558   0.33805208714795443
  20.90000000000002700   0.33740596507792875
  21.00000000000002842   0.33696707893679911
  21.10000000000002984   0.33680769185892351
  21.20000000000003126   0.33687444057518356
  21.30000000000003268   0.33697741412494692
  21.40000000000003411   0.33688139564665576
  21.50000000000003553   0.33643860580407375
  21.60000000000003695   0.33566966080768595
  21.70000000000003837   0.33474952391717394
  21.80000000000003979   0.33391065067189024
  21.90000000000004121   0.33330536574781211
  22.00000000000004263   0.33290630236251056
  22.10000000000004405   0.33252793873751668
  22.20000000000004547   0.33196596590702082
  22.30000000000004690   0.33114934787839828
  22.40000000000004832   0.33019393566780475
  22.50000000000004974   0.32932749522982890
  22.60000000000005116   0.32874550278796616
  22.70000000000005258   0.32850002988263360
  22.80000000000005400   0.32849174746979826
  22.90000000000005542   0.32855123589734825
  23.00000000000005684   0.32853661626084407
  23.10000000000005826   0.32838213364654162
  23.20000000000005969   0.32808482506614695
  23.30000000000006111   0.32766635891402951
  23.40000000000006253   0.32715128499055468
  23.50000000000006395   0.32656672312914520
  23.60000000000006537   0.32594699172769864
  23.70000000000006679   0.32533488922768888
  23.80000000000006821   0.32477565956742460
  23.90000000000006963   0.32429970298590394
  24.00000000000007105   0.32390093067597914
  24.10000000000007248   0.32352394163580589
  24.20000000000007390   0.32307523972766639
  24.30000000000007532   0.32247475041181056
  24.40000000000007674   0.32172871590893565
  24.50000000000007816   0.32096182020706182
  24.60000000000007958   0.32037201103654273
  24.70000000000008100   0.32013227067033240
  24.80000000000008242   0.32028654989931038
  24.90000000000008384   0.32069382802767959
  25.00000000000008527   0.32107828103745562
  25.10000000000008669   0.32118714238289020
  25.20000000000008811   0.32095519276619772
  25.30000000000008953   0.32054517037266284
  25.40000000000009095   0.32022646384077935
  25.50000000000009237   0.32018254101253218
  25.60000000000009379   0.32039244144554002
  25.70000000000009521   0.32066996680693299
  25.80000000000009663   0.32081411467803261
  25.90000000000009805   0.32074189265337616
  26.00000000000009948   0.32050818989557317
  26.10000000000010090   0.32022163899955014
  26.20000000000010232   0.31994249913377132
  26.30000000000010374   0.31964068250941263
  26.40000000000010516   0.31922920452751913
  26.50000000000010658   0.31863980355348431
  26.60000000000010800   0.31789026189694036
  26.70000000000010942   0.31709528193263919
  26.80000000000011084   0.31640904673253800
  26.90000000000011227   0.31594176006193564
  27.00000000000011369   0.31571101787738637
  27.10000000000011511   0.31565430074021050
  27.20000000000011653   0.31567591061805034
  27.30000000000011795   0.31568358214309306
  27.40000000000011937   0.31560015288315263
  27.50000000000012079   0.31536542335192491
  27.60000000000012221   0.31494170911247216
  27.70000000000012363   0.31432292785821264
  27.80000000000012506   0.31353257393546041
  27.90000000000012648   0.31259854383306923
  28.00000000000012790   0.31152505091226684
  28.10000000000012932   0.31029636600167060
  28.20000000000013074   0.30891509808307405
  28.30000000000013216   0.30744571618812988
  28.40000000000013358   0.30602951852668281
  28.50000000000013500   0.30484927846108983
  28.60000000000013642   0.30405885993882498
  28.70000000000013785   0.30372830096968878
  28.80000000000013927   0.30383341446570294
  28.90000000000014069   0.30427515530020022
  29.00000000000014211   0.30491340140863726
  29.10000000000014353   0.30561147274500255
  29.20000000000014495   0.30627403011611215
  29.30000000000014637   0.30685629470886194
  29.40000000000014779   0.30734043042119119
  29.50000000000014921   0.30769841961192079
  29.60000000000015064   0.30787774943021073
  29.70000000000015206   0.30782621128238602
  29.80000000000015348   0.30752786121180065
  29.90000000000015490   0.30702270860281905
  30.00000000000015632   0.30641102430887640
  30.10000000000015774   0.30583949977571773
  30.20000000000015916   0.30546034655102883
  30.30000000000016058   0.30537148686423277
  30.40000000000016200   0.30555951365299788
  30.50000000000016342   0.30587750849889317
  30.60000000000016485   0.30609319849588706
  30.70000000000016627   0.30600251766151521
  30.80000000000016769   0.30553820306247453
  30.90000000000016911   0.30479504186798156
  31.00000000000017053   0.30396013392533933
  31.10000000000017195   0.30320204121771793
  31.20000000000017337   0.30258608036726314
  31.30000000000017479   0.30205673004912620
  31.40000000000017621   0.30148492765470120
  31.50000000000017764   0.30074640499624550
  31.60000000000017906   0.29979648121899732
  31.70000000000018048   0.29871048543022727
  31.80000000000018190   0.29766289995360468
  31.90000000000018332   0.29685360155202906
  32.00000000000018474   0.29642397033312384
  32.10000000000018616   0.29639742978032491
  32.20000000000018758   0.29666434898469529
  32.30000000000018900   0.29702734280857512
  32.40000000000019043   0.29729020154482888
  32.50000000000019185   0.29733409083128381
  32.60000000000019327   0.29713805434401963
  32.70000000000019469   0.29674629789945500
  32.80000000000019611   0.29621495010528254
  32.90000000000019753   0.29557838513825552
  33.00000000000019895   0.29485717151148039
  33.10000000000020037   0.29409552938585470
  33.20000000000020179   0.29339068740329527
  33.30000000000020322   0.29287546997164071
  33.40000000000020464   0.29265038935304966
  33.50000000000020606   0.29270973762633190
  33.60000000000020748   0.29291357771001164
  33.70000000000020890   0.29302574811869414
  33.80000000000021032   0.29280897181661808
  33.90000000000021174   0.29213606521386576
  34.00000000000021316   0.29104869617353252
  34.10000000000021458   0.28972836720546319
  34.20000000000021600   0.28841265454288079
  34.30000000000021743   0.28730929231373092
  34.40000000000021885   0.28653943745996086
  34.50000000000022027   0.28612652282654533
  34.60000000000022169   0.28602685741751604
  34.70000000000022311   0.28617138841218043
  34.80000000000022453   0.28648747946721170
  34.90000000000022595   0.28689373312904920
  35.00000000000022737   0.28728678133509661
  35.10000000000022879   0.28754829675964888
  35.20000000000023022   0.28758167553703606
  35.30000000000023164   0.28736072206272850
  35.40000000000023306   0.28696242551890228
  35.50000000000023448   0.28655549864072061
  35.60000000000023590   0.28632792738819107
  35.70000000000023732   0.28637816489826684
  35.80000000000023874   0.28663866905495022
  35.90000000000024016   0.28689606294276987
  36.00000000000024158   0.28690936601029821
  36.10000000000024301   0.28655163251817634
  36.20000000000024443   0.28588015350124463
  36.30000000000024585   0.28509778467114261
  36.40000000000024727   0.28444271210891314
  36.50000000000024869   0.28407142385794393
  36.60000000000025011   0.28399115818799564
  36.70000000000025153   0.28407768913459253
  36.80000000000025295   0.28416233950123920
  36.90000000000025437   0.28412157748664418
  37.00000000000025580   0.28392338083412438
  37.10000000000025722   0.28363407807644991
  37.20000000000025864   0.28339129418647430
  37.30000000000026006   0.28333952458866579
  37.40000000000026148   0.28354993703236470
  37.50000000000026290   0.28396968288132007
  37.60000000000026432   0.28443753750298256
  37.70000000000026574   0.28476320299404373
  37.80000000000026716   0.28481588068218933
  37.90000000000026859   0.28456023116985135
  38.00000000000027001   0.28403146649565691
  38.10000000000027143   0.28329409250221482
  38.20000000000027285   0.28243108181638904
  38.30000000000027427   0.28156129472406149
  38.40000000000027569   0.28083178297626210
  38.50000000000027711   0.28035295165670676
  38.60000000000027853   0.28012352396285889
  38.70000000000027995   0.28002252746236350
  38.80000000000028137   0.27988512628350781
  38.90000000000028280   0.27960088296893260
  39.00000000000028422   0.27916133862486542
  39.10000000000028564   0.27863695035898095
  39.20000000000028706   0.27811533978873332
  39.30000000000028848   0.27764699245551872
  39.40000000000028990   0.27723295154017563
  39.50000000000029132   0.27685975405477531
  39.60000000000029274   0.27654817725194636
  39.70000000000029416   0.27636406947848741
  39.80000000000029559   0.27636342178909640
  39.90000000000029701   0.27650862475613130
  40.00000000000029843   0.27665132144860882
  40.10000000000029985   0.27663374938918894
  40.20000000000030127   0.27642425542728266
  40.30000000000030269   0.27614758453158222
  40.40000000000030411   0.27597692079046232
  40.50000000000030553   0.27598267700080981
  40.60000000000030695   0.27605884586652629
  40.70000000000030838   0.27598853136263451
  40.80000000000030980   0.27560983606514622
  40.90000000000031122   0.27495468418053998
  41.00000000000031264   0.27424275463591197
  41.10000000000031406   0.27373255240606831
  41.20000000000031548   0.27355089752531814
  41.30000000000031690   0.27363288150446669
  41.40000000000031832   0.27380429576379850
  41.50000000000031974   0.27391937161140073
  41.60000000000032117   0.27393366409922154
  41.70000000000032259   0.27386767727969558
  41.80000000000032401   0.27372439368149243
  41.90000000000032543   0.27345942179748967
  42.00000000000032685   0.27303330292622313
  42.10000000000032827   0.27248535705214333
  42.20000000000032969   0.27195265013967657
  42.30000000000033111   0.27160673596755724
  42.40000000000033253   0.27154129441339225
  42.50000000000033396   0.27168464840541723
  42.60000000000033538   0.27180394128230567
