# long range Heisenberg model
# L = 18, J = 1.0, Delta = 0.50, Alpha = 2.0
# Contribution of Si to the sum rule for spin conductivity vs corresponding frequency
# omega_i, Si  

1996.66 0.15679415062821883
2783.67 8.7551879048675438E-002
3127.36 6.1125573355018864E-002
3582.5 4.7399668201566658E-002
3891.64 3.8765969276309632E-002
4142.1 3.2812444796996569E-002
4385.87 2.8358555064488138E-002
4667.54 2.4972237734762499E-002
4851.24 2.2219917674431433E-002
5159.83 2.0025601718918221E-002
5362.53 1.8204488537841720E-002
5631.77 1.6659637748673690E-002
5839.36 1.5330027891440884E-002
6046.05 1.4175065499955524E-002
6253.81 1.3172248618149847E-002
6448.44 1.2281736789275586E-002
6736.17 1.1488851737753018E-002
6928.89 1.0777599719134600E-002
7083.71 1.0141673736189148E-002
7352.29 9.5620574083469263E-003
7543.18 9.0324189365409979E-003
7725.96 8.5549514043151958E-003
8105.41 8.1159617880601203E-003
8267.35 7.7130045846994389E-003
8484.62 7.3437722716521081E-003
8661.63 7.0067849992420045E-003
9035.47 6.6878445550770868E-003
9085.49 6.3947712682446197E-003
9235.57 6.1246080644794957E-003
9527.92 5.8737445782469444E-003
9798.69 5.6374054556304213E-003
9922.41 5.4163773414073347E-003
10162.9 5.2092772383104807E-003
10319 5.0167450825766039E-003
10691.2 4.8351389106301270E-003
10770.9 4.6614701371552507E-003
11068 4.4980203223624641E-003
11211.6 4.3443682836232659E-003
11389.7 4.1987586823470941E-003
11754.3 4.0600164789889323E-003
11946.2 3.9308325419401937E-003
12160.8 3.8081198426421822E-003
12288.9 3.6910974827238322E-003
12452.7 3.5791276181349743E-003
12803.5 3.4722100839887321E-003
12844.8 3.3706224793614934E-003
13042 3.2735418011915506E-003
13319.6 3.1810681662044369E-003
13336.9 3.0917529281896065E-003
13616.3 3.0077936241787030E-003
13828.2 2.9263538485856540E-003
13987.2 2.8488154941004682E-003
14382.5 2.7756328354011316E-003
14323.2 2.7051313942164927E-003
14589.8 2.6367312252475613E-003
14745 2.5715890815404293E-003
14973.6 2.5088881193830385E-003
14908.1 2.4490013960136621E-003
15358.6 2.3904446056525748E-003
15439 2.3347053757862141E-003
15628.6 2.2809649515269353E-003
15832.3 2.2293646524459906E-003
15944.1 2.1790609292656046E-003
16210.3 2.1309976321500839E-003
16309.1 2.0842633992493613E-003
16436.3 2.0388793358570557E-003
16631.6 1.9953855490138905E-003
16888.8 1.9539945308423719E-003
17030.8 1.9134743803480327E-003
17010 1.8744490962273911E-003
17280.7 1.8368185560695028E-003
17317.5 1.7997397933520664E-003
17636.2 1.7640353745399511E-003
17712.2 1.7286084950683958E-003
17872.8 1.6945571854564256E-003
18099.6 1.6618629748286760E-003
18171.9 1.6298750346644376E-003
18247.4 1.5990987460549491E-003
18504.1 1.5694694648381359E-003
18793.2 1.5404515015926461E-003
18870.3 1.5122447483524918E-003
18981.9 1.4852533718553065E-003
19073.6 1.4583718403231253E-003
19177.1 1.4327801867641719E-003
19401.9 1.4073532474625124E-003
19608.1 1.3830697847765309E-003
19640.1 1.3591922609404487E-003
19880.9 1.3361280063782723E-003
19777.4 1.3131877996031757E-003
20116.5 1.2906653211882063E-003
20199.1 1.2691366023607645E-003
20442.8 1.2481443221575702E-003
20426.6 1.2277325900143920E-003
20486.2 1.2078541066865317E-003
20682.4 1.1883651770602020E-003
20972.8 1.1695417725425949E-003
21021.9 1.1511282392540896E-003
21144.6 1.1331347586926496E-003
21354 1.1155310549524017E-003
21385 1.0982916933458520E-003
21490.7 1.0813171233680736E-003
21731.2 1.0649313612865229E-003
21711.2 1.0486908233781193E-003
22124.4 1.0330892793459754E-003
22014.4 1.0178172620669008E-003
22321.1 1.0028632072344450E-003
22349 9.8797135143218612E-004
22456.7 9.7364615645036449E-004
22770.8 9.5950479500061148E-004
22697 9.4575916980152127E-004
22943 9.3238609300461909E-004
22844.4 9.1919636948411306E-004
23053.6 9.0604678832396641E-004
23218.7 8.9333634080390929E-004
23218.2 8.8105043920340225E-004
23433 8.6895892198789312E-004
23462.4 8.5699520197889828E-004
23660.7 8.4534449075282622E-004
23755.2 8.3394098009892989E-004
23744.6 8.2281953439209256E-004
23900.7 8.1170365730417614E-004
24165.9 8.0088400828641146E-004
24338.1 7.9031085111359075E-004
24488.1 7.7995964710784159E-004
24573.5 7.6973590495858259E-004
24523.2 7.5968505582976341E-004
24738.4 7.4986654651590726E-004
24811.5 7.4028914453110875E-004
25082.3 7.3082292047775294E-004
24968.7 7.2156529845612783E-004
25084 7.1244609609906484E-004
25255.6 7.0349346508127245E-004
25310.8 6.9459581374036795E-004
25465.5 6.8601105905843277E-004
25430.2 6.7760179886495531E-004
25774.3 6.6926264499630160E-004
25732.5 6.6108196516907248E-004
26049.8 6.5300726269797464E-004
26101.2 6.4507078438854303E-004
26029.3 6.3735760013629533E-004
26082.6 6.2977476456973667E-004
26214.7 6.2225009464434821E-004
26525.4 6.1488991106327731E-004
26631.4 6.0763084690960132E-004
26450.1 6.0040386003819117E-004
26585.7 5.9340130445650907E-004
26879.5 5.8651215126391814E-004
26951.1 5.7966385103088239E-004
27026.7 5.7291846603597951E-004
27167.6 5.6629103073257904E-004
27089.7 5.5984172368707711E-004
27390.7 5.5347855304680674E-004
27330.4 5.4713378181053568E-004
27364.2 5.4101372097319078E-004
27588.6 5.3492347129318522E-004
27599.1 5.2891488073971208E-004
27730.9 5.2303009136910885E-004
28067.6 5.1719177627190533E-004
27966.4 5.1143512100314996E-004
28032.5 5.0581180225949213E-004
28329.1 5.0031729034015514E-004
28305.3 4.9486606564802104E-004
28406 4.8950574120791047E-004
28484.5 4.8421365027453739E-004
28583.5 4.7903248392008267E-004
28571.2 4.7387747937403400E-004
28680.3 4.6877359395715008E-004
28906.2 4.6378538832502907E-004
28960.4 4.5891474411216586E-004
29067.2 4.5407875142455806E-004
29041.7 4.4933119824953048E-004
29328.8 4.4461490353428685E-004
29361.5 4.4001176153798488E-004
29246 4.3545265199839268E-004
29478.6 4.3093839390831277E-004
29630.8 4.2649463311134316E-004
29683.4 4.2211340458000866E-004
29810.8 4.1778023094006663E-004
29778.5 4.1347244392853078E-004
29958.5 4.0926218401171247E-004
30126.6 4.0510245522227314E-004
30073.4 4.0100123846442025E-004
30254.5 3.9697963239120895E-004
30297.4 3.9300708145025741E-004
30559.7 3.8905501029129421E-004
30674.3 3.8514941283225828E-004
30646.4 3.8128123058780452E-004
30754 3.7746403121062105E-004
30768.6 3.7378296530175272E-004
30877 3.7008998837618573E-004
30962.8 3.6648660663630235E-004
30928.9 3.6288663550263406E-004
31371.8 3.5931368149417104E-004
31296.4 3.5587796360332896E-004
31580.9 3.5244137911683287E-004
31260.1 3.4903443780989366E-004
31748.5 3.4570246361016825E-004
31525.4 3.4242139584291030E-004
31626.2 3.3912931456562634E-004
31917.6 3.3586271952206680E-004
32027.3 3.3263656815942514E-004
31996.1 3.2954257128080434E-004
32090 3.2642640371487733E-004
31960.3 3.2334886942845880E-004
32395.3 3.2031953197326975E-004
32514.8 3.1731615939173006E-004
32362.2 3.1432560510772164E-004
32745.3 3.1137338819258397E-004
32846.8 3.0849046510540522E-004
32658.6 3.0563539082357208E-004
32757.1 3.0280916910614718E-004
32889.9 3.0002804761870161E-004
33017.3 2.9722961369555903E-004
33368.9 2.9452431128925777E-004
33297.3 2.9181260588185295E-004
33325.5 2.8917717966070542E-004
33303.4 2.8650568108254257E-004
33431.4 2.8392153821518913E-004
33313.7 2.8133857133598336E-004
33427.2 2.7875802223320057E-004
33603.1 2.7627021899906607E-004
33775.4 2.7380419040366218E-004
33931.3 2.7133534143419140E-004
33873.7 2.6893615183396381E-004
33993.3 2.6654315505075506E-004
34000.5 2.6416814425095895E-004
34238.2 2.6181470955898852E-004
34260.9 2.5949686790658157E-004
34415.6 2.5719069429446819E-004
34630.5 2.5491463844093734E-004
34548.1 2.5267129757728681E-004
34600.1 2.5043537378919764E-004
34622.6 2.4824700579431002E-004
34667.6 2.4609299273262294E-004
35031.8 2.4393597929246965E-004
35080.8 2.4181703969174573E-004
35135.2 2.3970422346178332E-004
34958.6 2.3761650338885077E-004
34886.3 2.3553198137727543E-004
35468.4 2.3351635867220806E-004
35470.4 2.3149644312049414E-004
35420.5 2.2952141629475361E-004
35624.5 2.2755666827103412E-004
35794.3 2.2560479316564773E-004
35960.1 2.2367059885659992E-004
35988.4 2.2177974194227660E-004
36151.6 2.1989556246194722E-004
36053.2 2.1804884903946171E-004
36006.1 2.1618113292288800E-004
36085.6 2.1435618188305527E-004
36278.1 2.1256472254883963E-004
35881.4 2.1078177584696038E-004
36633.6 2.0901807070291669E-004
36423.4 2.0726562704850490E-004
36714.8 2.0555564698103679E-004
36623.7 2.0385320403479865E-004
36827.9 2.0216440276175283E-004
36805.4 2.0050238771337470E-004
36973 1.9884993265006676E-004
37018.3 1.9721127127780003E-004
37132.9 1.9559130314370426E-004
36936.5 1.9396533928237459E-004
37258.1 1.9236365845957208E-004
37320.4 1.9078917134389187E-004
37306.6 1.8923041481284442E-004
37694.6 1.8768532188433683E-004
37779.8 1.8616795831532699E-004
37642.5 1.8465876476564641E-004
37901.3 1.8316086234357770E-004
37578.9 1.8168698966887733E-004
38001.2 1.8022048612698684E-004
38090.9 1.7876473870468657E-004
37926.4 1.7731466662438330E-004
38195 1.7589241688594176E-004
38400.5 1.7448530800771958E-004
38170.4 1.7310100313464201E-004
38529 1.7171948886505521E-004
38529 1.7035204235036098E-004
38477.9 1.6900169103430511E-004
38682.1 1.6767047773357321E-004
38743.2 1.6633519218715184E-004
38690.9 1.6502644424147144E-004
38591.7 1.6371395518732692E-004
38918 1.6242478983328982E-004
39028.2 1.6112933002785157E-004
38991.9 1.5986667577277890E-004
39336 1.5860718180555667E-004
39180.5 1.5736255906354820E-004
39296.2 1.5613829721173919E-004
39444.6 1.5491585525805526E-004
39273.8 1.5370061110455405E-004
39591.1 1.5250607400884507E-004
39579.4 1.5131510783003728E-004
39734.2 1.5014879849527561E-004
39936.8 1.4898856462187542E-004
39705.7 1.4784180175878256E-004
39936.9 1.4669960286900832E-004
40178.6 1.4555796419137864E-004
39955.7 1.4444478550745344E-004
40427.4 1.4334154153006990E-004
40368.5 1.4224234305654359E-004
40433.6 1.4115692833507182E-004
40485.9 1.4006547050126903E-004
40403.6 1.3899547021840620E-004
40524 1.3793273801085133E-004
40690.4 1.3687778674202158E-004
40678.3 1.3582736338049213E-004
40928.5 1.3479356951162844E-004
40756.4 1.3376728128005420E-004
41103.1 1.3273663055031506E-004
40865.7 1.3172601350314620E-004
41205.1 1.3073366654236775E-004
41269.7 1.2974884826852604E-004
41556.3 1.2875599235247668E-004
41578.4 1.2778792350169078E-004
41544.2 1.2682919458103752E-004
41683.3 1.2587658018687649E-004
41671.2 1.2493088956242411E-004
41838.3 1.2399318104140296E-004
41873.2 1.2306759473821433E-004
41658.6 1.2213737810417769E-004
41843.6 1.2122589139909709E-004
42133.6 1.2031628537890884E-004
42246.8 1.1942794437090936E-004
42488.1 1.1854253747550389E-004
42265.5 1.1766303903824800E-004
42696.1 1.1679798078719446E-004
42351.8 1.1593417942635918E-004
42633.3 1.1506500900960736E-004
42449.2 1.1420482958024786E-004
42430 1.1335910594334779E-004
42728.2 1.1252776533760614E-004
42805.4 1.1170374108869597E-004
42812.9 1.1087820230027349E-004
42871.9 1.1006123385327660E-004
42860.2 1.0926156310859838E-004
43007.4 1.0846214240089906E-004
43552.7 1.0766955784346203E-004
43313.3 1.0688533034348418E-004
43552.7 1.0610808146438239E-004
43753.4 1.0532774318685054E-004
43962.1 1.0455890993869706E-004
43194.5 1.0379960329135763E-004
43851.3 1.0304083486998283E-004
44051.3 1.0228272945366667E-004
43949.4 1.0154114828749118E-004
44442.2 1.0080554253172077E-004
44176.3 1.0007145756944984E-004
44025.1 9.9351593492773174E-005
44211.9 9.8635690791145674E-005
44006.1 9.7924530556452985E-005
44354.7 9.7213328844493485E-005
44482.9 9.6516836476969608E-005
44526 9.5829551154828882E-005
44672.8 9.5134280287288646E-005
44655.3 9.4455042529808413E-005
44576.4 9.3772896336463761E-005
44654.2 9.3108991404777721E-005
44740 9.2452362639911361E-005
45008.6 9.1792821470644320E-005
45283.4 9.1132898524503791E-005
45256.2 9.0480171482638569E-005
45093.9 8.9832259278309898E-005
45129.1 8.9188962796028505E-005
45282.1 8.8557371535664985E-005
45452.6 8.7920880186799001E-005
45602.3 8.7296279407965771E-005
45529.1 8.6683802658950369E-005
45747.6 8.6065452209457241E-005
45576.1 8.5458977026456288E-005
45701.6 8.4857872091154477E-005
45888.9 8.4268574103121108E-005
45948.4 8.3677252945475551E-005
45747.5 8.3088368464295047E-005
46607.4 8.2499036250572867E-005
46304.8 8.1921775404282263E-005
46366.3 8.1343632425637179E-005
46478.1 8.0770482582799623E-005
46579.4 8.0196305352684574E-005
46484.6 7.9635141353796986E-005
46512.6 7.9073373585632841E-005
46709.7 7.8521739164659496E-005
46775.3 7.7974844593734139E-005
46622.1 7.7424018347219763E-005
46975.2 7.6879213390403946E-005
47066.3 7.6347070620453515E-005
47208.8 7.5812791795096975E-005
47330.7 7.5286056619442422E-005
47367.8 7.4763427355824992E-005
47285.6 7.4242552887798869E-005
47194.7 7.3725170508893561E-005
47443.8 7.3214413274898699E-005
47517.8 7.2717738868675500E-005
47694.1 7.2218882482497605E-005
47806.9 7.1727259685283571E-005
48043 7.1231829656170353E-005
47489.5 7.0738061730355934E-005
47692.3 7.0247604066672314E-005
47668.7 6.9756901872008987E-005
48116.3 6.9278084293968991E-005
48178.1 6.8802401262546529E-005
48185.4 6.8328014170391464E-005
48150.8 6.7856900402673220E-005
48515.6 6.7392419733023303E-005
48508.7 6.6931038128721968E-005
48344.2 6.6469756364463279E-005
48724.2 6.6014782236971400E-005
48299.5 6.5567492468843921E-005
48763.2 6.5118103602270177E-005
48440.7 6.4675762948542193E-005
49064 6.4234578177255715E-005
49062.3 6.3799761030820614E-005
48998.7 6.3365175372079205E-005
49466.6 6.2937477499136975E-005
49169.1 6.2503253656586235E-005
49082.7 6.2079684695357269E-005
49455.6 6.1664816962535597E-005
49691.8 6.1246031654097166E-005
49338.1 6.0830092865737634E-005
49357.1 6.0419182876873135E-005
49790.5 6.0013307731030839E-005
49575.1 5.9604414131801789E-005
49849.5 5.9200861932344707E-005
49681 5.8801691674395441E-005
50102.3 5.8404097464754737E-005
50049.6 5.8011007505925512E-005
50078.4 5.7617343269923372E-005
50175.4 5.7229857698178557E-005
50361.5 5.6847552127535213E-005
50300.6 5.6467516136899387E-005
50339.1 5.6095012155616029E-005
50193 5.5717816507489220E-005
50685.7 5.5346464739121069E-005
50585.1 5.4976346792232867E-005
50629.6 5.4613831720495543E-005
50552.4 5.4243331198595522E-005
51023.9 5.3881794082805419E-005
51043.2 5.3521521352624712E-005
50511.5 5.3164027775497940E-005
51226.5 5.2811748537782532E-005
51338 5.2460788229500905E-005
51182.9 5.2113657735546530E-005
51430.4 5.1765278483085648E-005
51168 5.1424927880347841E-005
51540.7 5.1082712338397866E-005
51477.7 5.0739696070882902E-005
51555.6 5.0404366920504838E-005
51638.6 5.0071682122603074E-005
51806.8 4.9736998911421149E-005
51685.9 4.9411993865576540E-005
51765.2 4.9085233016200873E-005
52224.6 4.8764099857474492E-005
52098.2 4.8438431643123946E-005
52133.8 4.8117795951124110E-005
52277.4 4.7796143616995772E-005
52498.1 4.7479878326986606E-005
52302.1 4.7168186687472887E-005
52357.8 4.6854946550452218E-005
52528.5 4.6545243252086045E-005
52806.2 4.6236141890863177E-005
52813.4 4.5933279452254091E-005
52445.1 4.5628815262883472E-005
52731.9 4.5328895920468019E-005
52836.6 4.5030611375700548E-005
53011.1 4.4736744540656334E-005
53065.6 4.4447301393861111E-005
53018.4 4.4154405568031291E-005
53025.7 4.3863814522650652E-005
53289.1 4.3576982607337237E-005
53654.5 4.3292449917488714E-005
53484.2 4.3006897878982523E-005
53556.6 4.2723335411283821E-005
52950 4.2446363805631345E-005
53555.4 4.2167909846054710E-005
53877.5 4.1891691730604880E-005
53867.8 4.1619010783364635E-005
53662.7 4.1345565841817688E-005
54140.9 4.1074041086828106E-005
54048.2 4.0805773201044681E-005
54041.6 4.0541430549926600E-005
54184.7 4.0276762268236940E-005
54620.9 4.0016272094226725E-005
54595.9 3.9755602940872144E-005
54244.8 3.9493837111872526E-005
54374.2 3.9235721176264810E-005
54591.7 3.8979967572801700E-005
54494 3.8723932963143910E-005
54714.6 3.8472248481825353E-005
55039 3.8220982514892107E-005
54841.3 3.7971892639114968E-005
54970.2 3.7727760490167930E-005
55071.9 3.7482017482685375E-005
55252.5 3.7242065836081758E-005
55319.8 3.6999304926476575E-005
55163.2 3.6759541946846915E-005
55264 3.6520180157754935E-005
55680.5 3.6283951035101445E-005
55580 3.6048469911270226E-005
55400.4 3.5811713237963102E-005
55500.3 3.5578241380996392E-005
55470.1 3.5348179646280112E-005
55873.6 3.5122368645359993E-005
55887.5 3.4894693582246346E-005
55806.5 3.4669826346209880E-005
55963.9 3.4444203951035609E-005
56349.1 3.4225003399433328E-005
56012.3 3.4004713472753508E-005
56003.4 3.3786912225103837E-005
56507.7 3.3565868237810852E-005
56206.5 3.3346901963020848E-005
56223.9 3.3132490652469392E-005
56483.7 3.2916710944403888E-005
56600.8 3.2706621559295185E-005
56871.6 3.2493899450506075E-005
56579.2 3.2285028740578771E-005
57211.5 3.2078148790200985E-005
57179.5 3.1871952284157590E-005
56651.3 3.1666661061789406E-005
57155.7 3.1462558459238399E-005
57316.2 3.1259680020094332E-005
56921.1 3.1059134338857674E-005
57561.9 3.0858417471085386E-005
57579.9 3.0656940379746497E-005
57808 3.0460310740560605E-005
57581.9 3.0265456998698225E-005
57519.1 3.0071038417869692E-005
57701.7 2.9880792574339829E-005
57793.5 2.9688701452313831E-005
58307.5 2.9496811962242227E-005
57996 2.9307012054952965E-005
57905.4 2.9119404211530932E-005
57845.7 2.8931385112417299E-005
58330.5 2.8744702164080041E-005
57950.5 2.8559571832410039E-005
58291.2 2.8376730201653982E-005
58064.7 2.8194641995169403E-005
58687.6 2.8015502184029660E-005
58371.5 2.7837979828338231E-005
58865.1 2.7660946620733347E-005
58590.1 2.7486431846614492E-005
58785.2 2.7309199706679415E-005
58948.8 2.7133437302843120E-005
58369.7 2.6957688425219350E-005
59047.1 2.6786247299940096E-005
58699.1 2.6614420965631209E-005
58890 2.6443188606808821E-005
58971.9 2.6274358589382762E-005
59179.3 2.6106718316039910E-005
59441.9 2.5939084571469311E-005
59530.4 2.5773647191035381E-005
59636.3 2.5611514392336126E-005
59662.4 2.5448969460265003E-005
59822.6 2.5287953747487220E-005
59759.7 2.5127483962491737E-005
59437 2.4968267848246172E-005
59507.1 2.4805780675612856E-005
59572.2 2.4648894598832484E-005
60104.4 2.4490732651170263E-005
59930.9 2.4334626704224876E-005
60158.9 2.4181015050117617E-005
60139.8 2.4027375446015771E-005
60384.1 2.3873880109899557E-005
60401.8 2.3725156386691060E-005
60369.7 2.3573675714434482E-005
60364.5 2.3424248823109630E-005
60503.5 2.3275918100129406E-005
61114.8 2.3126098610170209E-005
60615.1 2.2978362159192669E-005
60897.2 2.2832138507556032E-005
60930.6 2.2687266031092620E-005
60676 2.2543049009912462E-005
61195.5 2.2400881020435590E-005
60656.1 2.2259240877430413E-005
61045 2.2119209892127722E-005
61391.9 2.1978886288768543E-005
61330.5 2.1838842070515845E-005
61293.3 2.1699471855116256E-005
61677.6 2.1562079997713411E-005
61681.6 2.1425140401419636E-005
61636.9 2.1290536159102475E-005
61434.9 2.1155415817293890E-005
62065.6 2.1021655352517009E-005
61963.1 2.0889044751099469E-005
61769.1 2.0756374913378265E-005
61898.3 2.0625243189314755E-005
62434.6 2.0492938248614157E-005
62170.2 2.0363466000026176E-005
62238.1 2.0234657886282625E-005
62615.1 2.0103358063802523E-005
62400.8 1.9976714251062801E-005
62028.4 1.9851184651692212E-005
62475.6 1.9724901037971621E-005
63118.5 1.9599583814720295E-005
62817.2 1.9474348788697699E-005
62530.6 1.9349694098020190E-005
62574.4 1.9227454397712678E-005
62997 1.9105698067316134E-005
62838 1.8984881192719691E-005
63553.7 1.8865123540277898E-005
63050.2 1.8745629154716529E-005
63235.2 1.8626216051217238E-005
62724.5 1.8508693748285310E-005
63385.8 1.8390550536397772E-005
63564.8 1.8272492327151321E-005
63258.2 1.8156332284272584E-005
63378.7 1.8040416299208623E-005
63605.6 1.7926058997326089E-005
63705.7 1.7811617509450247E-005
63784.5 1.7699569592115354E-005
63836.9 1.7586009282843931E-005
64375.7 1.7473684644298967E-005
64056.6 1.7363372327784553E-005
64615.7 1.7253806902548039E-005
64149.2 1.7143534734763886E-005
64367.2 1.7035248312368140E-005
64549.5 1.6927698787215438E-005
64696.9 1.6819567040698158E-005
64595.9 1.6714085137176873E-005
64651.7 1.6607529784277563E-005
64748.3 1.6500371530204274E-005
64618.4 1.6395281284150104E-005
64616.3 1.6290754104927078E-005
