# Spinless fermions Hamiltonian with random disorder and nearest neighbour interactions
# L=64x1 (size), J=0.5 (hoping amplitude), V=0.5 (interaction), W/J=6 (disorder strength), N=30 (disorder realizations), T=25 (number of trajectories)
# Evolution of Imbalance in time (fTWA method)
# time t, Imbalance I

   0.00000000000000000   1.00000000000000000
   0.10000000000000001   0.98970233802848295
   0.20000000000000001   0.96081447146016763
   0.30000000000000004   0.91591993845559694
   0.40000000000000002   0.85879078700909717
   0.50000000000000000   0.79380621096088588
   0.59999999999999998   0.72532674004264508
   0.69999999999999996   0.65715063179725342
   0.79999999999999993   0.59215091420562638
   0.89999999999999991   0.53213900181472185
   0.99999999999999989   0.47794159449079815
   1.09999999999999987   0.42963089114913366
   1.19999999999999996   0.38682542631061367
   1.30000000000000004   0.34898087149615376
   1.40000000000000013   0.31561047389834140
   1.50000000000000022   0.28640458047259204
   1.60000000000000031   0.26124928547868731
   1.70000000000000040   0.24016858523574114
   1.80000000000000049   0.22322784383034003
   1.90000000000000058   0.21043748159691972
   2.00000000000000044   0.20168651107020460
   2.10000000000000053   0.19672030973831167
   2.20000000000000062   0.19516117291548010
   2.30000000000000071   0.19655799169609839
   2.40000000000000080   0.20044529409755651
   2.50000000000000089   0.20639255127007622
   2.60000000000000098   0.21403106517534612
   2.70000000000000107   0.22305526851289373
   2.80000000000000115   0.23320461946191376
   2.90000000000000124   0.24423835392571869
   3.00000000000000133   0.25591597222010726
   3.10000000000000142   0.26799137565276016
   3.20000000000000151   0.28022080898828411
   3.30000000000000160   0.29237888730969130
   3.40000000000000169   0.30427569498555701
   3.50000000000000178   0.31577016291443899
   3.60000000000000187   0.32677750165407282
   3.70000000000000195   0.33726985737731413
   3.80000000000000204   0.34727013684356467
   3.90000000000000213   0.35683998886563645
   4.00000000000000178   0.36606410383295673
   4.10000000000000142   0.37503376198154470
   4.20000000000000107   0.38383241164612802
   4.30000000000000071   0.39252503885960194
   4.40000000000000036   0.40115180398406730
   4.50000000000000000   0.40972529662570978
   4.59999999999999964   0.41822989080141193
   4.69999999999999929   0.42662134874924973
   4.79999999999999893   0.43482590896471651
   4.89999999999999858   0.44274039233955303
   4.99999999999999822   0.45023643872445662
   5.09999999999999787   0.45717097099512055
   5.19999999999999751   0.46340176440394193
   5.29999999999999716   0.46880416003517311
   5.39999999999999680   0.47328467086418663
   5.49999999999999645   0.47678933197637602
   5.59999999999999609   0.47930685780681476
   5.69999999999999574   0.48086736932390672
   5.79999999999999538   0.48153700433468483
   5.89999999999999503   0.48140846994522901
   5.99999999999999467   0.48058794296764995
   6.09999999999999432   0.47917939623758671
   6.19999999999999396   0.47726810531727931
   6.29999999999999361   0.47490581452920694
   6.39999999999999325   0.47210091068369231
   6.49999999999999289   0.46881737647889932
   6.59999999999999254   0.46498494447593708
   6.69999999999999218   0.46051915032461338
   6.79999999999999183   0.45534557169132261
   6.89999999999999147   0.44942063515203168
   6.99999999999999112   0.44274338625790571
   7.09999999999999076   0.43535683739989200
   7.19999999999999041   0.42734116852427845
   7.29999999999999005   0.41880294862310152
   7.39999999999998970   0.40986471552771769
   7.49999999999998934   0.40065822426655656
   7.59999999999998899   0.39132243338193767
   7.69999999999998863   0.38200413179902321
   7.79999999999998828   0.37285631236929523
   7.89999999999998792   0.36402932699773816
   7.99999999999998757   0.35565383750398072
   8.09999999999998721   0.34782090850117359
   8.19999999999998685   0.34056882300591435
   8.29999999999998650   0.33388475406520862
   8.39999999999998614   0.32772275638182458
   8.49999999999998579   0.32203200294052525
   8.59999999999998543   0.31678527999650724
   8.69999999999998508   0.31199860928860917
   8.79999999999998472   0.30773664453715388
   8.89999999999998437   0.30410293311368691
   8.99999999999998401   0.30121812698610217
   9.09999999999998366   0.29919231050718975
   9.19999999999998330   0.29809937029805189
   9.29999999999998295   0.29796104759569836
   9.39999999999998259   0.29874536532814305
   9.49999999999998224   0.30037890250681520
   9.59999999999998188   0.30276725531780796
   9.69999999999998153   0.30581587603908916
   9.79999999999998117   0.30944513131642015
   9.89999999999998082   0.31359692856381877
   9.99999999999998046   0.31823299466853383
  10.09999999999998010   0.32332610544918394
  10.19999999999997975   0.32884675811643455
  10.29999999999997939   0.33475000483104417
  10.39999999999997904   0.34096856543177234
  10.49999999999997868   0.34741600036128806
  10.59999999999997833   0.35399797885657541
  10.69999999999997797   0.36062500171428641
  10.79999999999997762   0.36722013250939828
  10.89999999999997726   0.37371964193467383
  10.99999999999997691   0.38006891439678203
  11.09999999999997655   0.38621729241439812
  11.19999999999997620   0.39211389531689117
  11.29999999999997584   0.39770449258362678
  11.39999999999997549   0.40292919896057566
  11.49999999999997513   0.40772165044294867
  11.59999999999997478   0.41201077667322866
  11.69999999999997442   0.41572581733630809
  11.79999999999997407   0.41880433637242920
  11.89999999999997371   0.42120196580092595
  11.99999999999997335   0.42290146069513357
  12.09999999999997300   0.42391779681442032
  12.19999999999997264   0.42429633034099395
  12.29999999999997229   0.42410296826851140
  12.39999999999997193   0.42340864133788159
  12.49999999999997158   0.42227361102039573
  12.59999999999997122   0.42073796268000008
  12.69999999999997087   0.41882165228515572
  12.79999999999997051   0.41653215184555414
  12.89999999999997016   0.41387376190242214
  12.99999999999996980   0.41085293134725620
  13.09999999999996945   0.40747792219810736
  13.19999999999996909   0.40375549079013323
  13.29999999999996874   0.39968874852095021
  13.39999999999996838   0.39527885471581209
  13.49999999999996803   0.39053082760935171
  13.59999999999996767   0.38546223645331412
  13.69999999999996732   0.38011268553935912
  13.79999999999996696   0.37455094869909383
  13.89999999999996660   0.36887580496493744
  13.99999999999996625   0.36320770881685843
  14.09999999999996589   0.35767202758067523
  14.19999999999996554   0.35237887612749397
  14.29999999999996518   0.34740666528162761
  14.39999999999996483   0.34279499599420965
  14.49999999999996447   0.33854884066254687
  14.59999999999996412   0.33465243429091479
  14.69999999999996376   0.33108889525744728
  14.79999999999996341   0.32785973968236798
  14.89999999999996305   0.32499720793510273
  14.99999999999996270   0.32256317704332432
  15.09999999999996234   0.32063281471130817
  15.19999999999996199   0.31926799258266625
  15.29999999999996163   0.31849126973308245
  15.39999999999996128   0.31827207899104559
  15.49999999999996092   0.31853144768595976
  15.59999999999996056   0.31916303098786752
  15.69999999999996021   0.32006151025259361
  15.79999999999995985   0.32114785959213199
  15.89999999999995950   0.32238427385963714
  15.99999999999995914   0.32377645726914933
  16.09999999999995879   0.32536469419871406
  16.19999999999996021   0.32720709671208903
  16.29999999999996163   0.32935952104356436
  16.39999999999996305   0.33185720910195599
  16.49999999999996447   0.33470291921143419
  16.59999999999996589   0.33786486528735465
  16.69999999999996732   0.34128504672428800
  16.79999999999996874   0.34489470839721736
  16.89999999999997016   0.34863029311619825
  16.99999999999997158   0.35244267294863441
  17.09999999999997300   0.35629578913588050
  17.19999999999997442   0.36015633531402391
  17.29999999999997584   0.36398047495039731
  17.39999999999997726   0.36770449523556842
  17.49999999999997868   0.37124392379763921
  17.59999999999998010   0.37450200442550796
  17.69999999999998153   0.37738536259898214
  17.79999999999998295   0.37982281076305213
  17.89999999999998437   0.38178219054699025
  17.99999999999998579   0.38327986403870873
  18.09999999999998721   0.38437848620861126
  18.19999999999998863   0.38517170953906876
  18.29999999999999005   0.38575912375879806
  18.39999999999999147   0.38621905895700004
  18.49999999999999289   0.38658835654530838
  18.59999999999999432   0.38685567931673531
  18.69999999999999574   0.38696972122936141
  18.79999999999999716   0.38685859218585777
  18.89999999999999858   0.38645375390805303
  19.00000000000000000   0.38571124190141942
  19.10000000000000142   0.38462363922254844
  19.20000000000000284   0.38321842069114687
  19.30000000000000426   0.38154264902994239
  19.40000000000000568   0.37964001835059458
  19.50000000000000711   0.37753087657370982
  19.60000000000000853   0.37520554137859852
  19.70000000000000995   0.37263528800578866
  19.80000000000001137   0.36979691130596676
  19.90000000000001279   0.36670027731265031
  20.00000000000001421   0.36340686353722845
  20.10000000000001563   0.36003092328447722
  20.20000000000001705   0.35672139070405295
  20.30000000000001847   0.35362920878334769
  20.40000000000001990   0.35086956459619340
  20.50000000000002132   0.34849073652696383
  20.60000000000002274   0.34646022274777372
  20.70000000000002416   0.34467419707095193
  20.80000000000002558   0.34298912558522865
  20.90000000000002700   0.34126717585617938
  21.00000000000002842   0.33942223145359579
  21.10000000000002984   0.33745215665009121
  21.20000000000003126   0.33544608847654916
  21.30000000000003268   0.33356280621081913
  21.40000000000003411   0.33198568460708522
  21.50000000000003553   0.33086789617819379
  21.60000000000003695   0.33028530440862486
  21.70000000000003837   0.33021245351443901
  21.80000000000003979   0.33052963481055841
  21.90000000000004121   0.33105858364301777
  22.00000000000004263   0.33161481337138726
  22.10000000000004405   0.33205970331135204
  22.20000000000004547   0.33233695475688035
  22.30000000000004690   0.33248439343689767
  22.40000000000004832   0.33262008229722256
  22.50000000000004974   0.33290857693573050
  22.60000000000005116   0.33351743240453213
  22.70000000000005258   0.33457525175718728
  22.80000000000005400   0.33614100637297711
  22.90000000000005542   0.33819103322043126
  23.00000000000005684   0.34062573240262711
  23.10000000000005826   0.34329304557315987
  23.20000000000005969   0.34602152058072511
  23.30000000000006111   0.34865378012227560
  23.40000000000006253   0.35107221780035780
  23.50000000000006395   0.35321195056866150
  23.60000000000006537   0.35506008370497671
  23.70000000000006679   0.35664389449577666
  23.80000000000006821   0.35801263476072903
  23.90000000000006963   0.35921792183535500
  24.00000000000007105   0.36029690066631798
  24.10000000000007248   0.36126170446105521
  24.20000000000007390   0.36209807552051765
  24.30000000000007532   0.36277406980550170
  24.40000000000007674   0.36325619148123361
  24.50000000000007816   0.36352690102286622
  24.60000000000007958   0.36359661917853947
  24.70000000000008100   0.36350582171830420
  24.80000000000008242   0.36331726845662693
  24.90000000000008384   0.36310226868081219
  25.00000000000008527   0.36292621298780692
  25.10000000000008669   0.36283700891046267
  25.20000000000008811   0.36285721558612044
  25.30000000000008953   0.36297901534457788
  25.40000000000009095   0.36316200761410583
  25.50000000000009237   0.36333585459669970
  25.60000000000009379   0.36341022654131921
  25.70000000000009521   0.36329197308926375
  25.80000000000009663   0.36290548222491709
  25.90000000000009805   0.36220960536914987
  26.00000000000009948   0.36120494486847005
  26.10000000000010090   0.35992859750818190
  26.20000000000010232   0.35843830926644454
  26.30000000000010374   0.35679241586598071
  26.40000000000010516   0.35503361933694932
  26.50000000000010658   0.35318245808734416
  26.60000000000010800   0.35124147867282801
  26.70000000000010942   0.34920651238754219
  26.80000000000011084   0.34707962840549600
  26.90000000000011227   0.34487961859372429
  27.00000000000011369   0.34264830096716992
  27.10000000000011511   0.34045214803377688
  27.20000000000011653   0.33837828110581214
  27.30000000000011795   0.33652356630919672
  27.40000000000011937   0.33497751220672378
  27.50000000000012079   0.33380339550728283
  27.60000000000012221   0.33302429084008461
  27.70000000000012363   0.33261878410846851
  27.80000000000012506   0.33252646489066245
  27.90000000000012648   0.33266000858660849
  28.00000000000012790   0.33292083422463303
  28.10000000000012932   0.33321677192058885
  28.20000000000013074   0.33347979373614328
  28.30000000000013216   0.33367969078206466
  28.40000000000013358   0.33382847630205625
  28.50000000000013500   0.33397260412750690
  28.60000000000013642   0.33417509283828445
  28.70000000000013785   0.33449413014352558
  28.80000000000013927   0.33496577439923425
  28.90000000000014069   0.33559579533840284
  29.00000000000014211   0.33636171416081256
  29.10000000000014353   0.33722282662023956
  29.20000000000014495   0.33813397572151455
  29.30000000000014637   0.33905798561842077
  29.40000000000014779   0.33997235474893811
  29.50000000000014921   0.34086841971041837
  29.60000000000015064   0.34174465584375185
  29.70000000000015206   0.34259800979831168
  29.80000000000015348   0.34341716351998131
  29.90000000000015490   0.34418058318102285
  30.00000000000015632   0.34486111020843557
  30.10000000000015774   0.34543711204948219
  30.20000000000015916   0.34590699250322438
  30.30000000000016058   0.34630046792622243
  30.40000000000016200   0.34667924388945526
  30.50000000000016342   0.34712335244592507
  30.60000000000016485   0.34770629232843392
  30.70000000000016627   0.34846846766190326
  30.80000000000016769   0.34940011131113474
  30.90000000000016911   0.35044037081197699
  31.00000000000017053   0.35149148854169610
  31.10000000000017195   0.35244130270644397
  31.20000000000017337   0.35318667785807534
  31.30000000000017479   0.35365325762471511
  31.40000000000017621   0.35380917948368462
  31.50000000000017764   0.35367036727137674
  31.60000000000017906   0.35329484886030044
  31.70000000000018048   0.35276596776634928
  31.80000000000018190   0.35216879932563105
  31.90000000000018332   0.35156711161802157
  32.00000000000018474   0.35098762689238228
  32.10000000000018616   0.35041510866461384
  32.20000000000018758   0.34979836186630980
  32.30000000000018900   0.34906497683585536
  32.40000000000019043   0.34814139072571720
  32.50000000000019185   0.34697391855483478
  32.60000000000019327   0.34554569938498031
  32.70000000000019469   0.34388484133359443
  32.80000000000019611   0.34206124496227963
  32.90000000000019753   0.34017305587296620
  33.00000000000019895   0.33832680557070033
  33.10000000000020037   0.33661674625757121
  33.20000000000020179   0.33510866298740294
  33.30000000000020322   0.33383202044500315
  33.40000000000020464   0.33278178209603620
  33.50000000000020606   0.33192790500283303
  33.60000000000020748   0.33122776541027504
  33.70000000000020890   0.33063659879189067
  33.80000000000021032   0.33011370628119929
  33.90000000000021174   0.32962554205980643
  34.00000000000021316   0.32914818280936509
  34.10000000000021458   0.32867045920430132
  34.20000000000021600   0.32819684072100902
  34.30000000000021743   0.32774810903937535
  34.40000000000021885   0.32735854928455549
  34.50000000000022027   0.32706974554187340
  34.60000000000022169   0.32692190498475737
  34.70000000000022311   0.32694398834433835
  34.80000000000022453   0.32714466079228360
  34.90000000000022595   0.32750711511315689
  35.00000000000022737   0.32799075634272623
  35.10000000000022879   0.32854029875187679
  35.20000000000023022   0.32909906043945902
  35.30000000000023164   0.32962090979710951
  35.40000000000023306   0.33007646229133902
  35.50000000000023448   0.33045283513407636
  35.60000000000023590   0.33074962298744642
  35.70000000000023732   0.33097446663777413
  35.80000000000023874   0.33114007973617482
  35.90000000000024016   0.33126299269812026
  36.00000000000024158   0.33136378903230856
  36.10000000000024301   0.33146848620786978
  36.20000000000024443   0.33160980564095616
  36.30000000000024585   0.33182587971864258
  36.40000000000024727   0.33215410339006701
  36.50000000000024869   0.33262029346311889
  36.60000000000025011   0.33322674452495904
  36.70000000000025153   0.33394467913860704
  36.80000000000025295   0.33471556976930511
  36.90000000000025437   0.33546234575054401
  37.00000000000025580   0.33610734227393052
  37.10000000000025722   0.33659104887622371
  37.20000000000025864   0.33688552908881636
  37.30000000000026006   0.33699843976219512
  37.40000000000026148   0.33696677568909655
  37.50000000000026290   0.33684293063061993
  37.60000000000026432   0.33667834046137129
  37.70000000000026574   0.33651049510269460
  37.80000000000026716   0.33635705192632354
  37.90000000000026859   0.33621743343426569
  38.00000000000027001   0.33607941471132274
  38.10000000000027143   0.33592699306441837
  38.20000000000027285   0.33574653617320410
  38.30000000000027427   0.33553011595224197
  38.40000000000027569   0.33527647108942832
  38.50000000000027711   0.33499009918966227
  38.60000000000027853   0.33467831433696393
  38.70000000000027995   0.33434647029790743
  38.80000000000028137   0.33399335839186250
  38.90000000000028280   0.33361019628303545
  39.00000000000028422   0.33318532815883950
  39.10000000000028564   0.33271280194507208
  39.20000000000028706   0.33219929563133399
  39.30000000000028848   0.33166393341559047
  39.40000000000028990   0.33112998345275824
  39.50000000000029132   0.33061295795599721
  39.60000000000029274   0.33011191517501470
  39.70000000000029416   0.32960844087901986
  39.80000000000029559   0.32907316696247463
  39.90000000000029701   0.32847613882007365
  40.00000000000029843   0.32779648699541702
  40.10000000000029985   0.32702832209670762
  40.20000000000030127   0.32618200170744033
  40.30000000000030269   0.32528149086328556
  40.40000000000030411   0.32435907944603098
  40.50000000000030553   0.32344892905451395
  40.60000000000030695   0.32258143358083308
  40.70000000000030838   0.32178079505883850
  40.80000000000030980   0.32106753548806810
  40.90000000000031122   0.32046536300908407
  41.00000000000031264   0.32000874720194522
  41.10000000000031406   0.31974576920849307
  41.20000000000031548   0.31973203224638219
  41.30000000000031690   0.32001555115216040
  41.40000000000031832   0.32061731442016123
  41.50000000000031974   0.32151490402138450
  41.60000000000032117   0.32263578577995561
  41.70000000000032259   0.32386348421967009
  41.80000000000032401   0.32505586160931738
  41.90000000000032543   0.32607170585126305
  42.00000000000032685   0.32679988508641400
  42.10000000000032827   0.32718417439529640
  42.20000000000032969   0.32723710643234033
  42.30000000000033111   0.32703871203411117
  42.40000000000033253   0.32672013885663703
  42.50000000000033396   0.32643592514923536
  42.60000000000033538   0.32633094964227100
