# Spinless fermions Hamiltonian with random disorder and nearest neighbour interactions
# L=32x2 (size), J=0.5 (hoping amplitude), V=0.5 (interaction), W/J=6 (disorder strength), N=30 (disorder realizations), T=25 (number of trajectories)
# Evolution of Imbalance in time (fTWA method)
# time t, Imbalance I

   0.00000000000000000   1.00000000000000000
   0.10000000000000001   0.98983587235205273
   0.20000000000000001   0.96125258160267169
   0.30000000000000004   0.91671870780751619
   0.40000000000000002   0.85989371900824518
   0.50000000000000000   0.79507805849023028
   0.59999999999999998   0.72660359026710086
   0.69999999999999996   0.65828520672164670
   0.79999999999999993   0.59303838627553263
   0.89999999999999991   0.53271998426935285
   0.99999999999999989   0.47818603323011766
   1.09999999999999987   0.42950757145732721
   1.19999999999999996   0.38626198002664097
   1.30000000000000004   0.34782221206540892
   1.40000000000000013   0.31358698886656733
   1.50000000000000022   0.28312065197140335
   1.60000000000000031   0.25619741804924440
   1.70000000000000040   0.23276829303440696
   1.80000000000000049   0.21288400701349325
   1.90000000000000058   0.19660900282164376
   2.00000000000000044   0.18395146403391030
   2.10000000000000053   0.17482040311283442
   2.20000000000000062   0.16901000084126230
   2.30000000000000071   0.16620569681306310
   2.40000000000000080   0.16600535617835271
   2.50000000000000089   0.16795050145493842
   2.60000000000000098   0.17156419242245263
   2.70000000000000107   0.17639106573806718
   2.80000000000000115   0.18203274075984011
   2.90000000000000124   0.18817181561303248
   3.00000000000000133   0.19458095678215556
   3.10000000000000142   0.20111757758426374
   3.20000000000000151   0.20770685369697758
   3.30000000000000160   0.21431656835990393
   3.40000000000000169   0.22092857615141781
   3.50000000000000178   0.22751425279554188
   3.60000000000000187   0.23402228753606030
   3.70000000000000195   0.24038270179642995
   3.80000000000000204   0.24652216907643443
   3.90000000000000213   0.25237962703119965
   4.00000000000000178   0.25791342025349839
   4.10000000000000142   0.26309926359388552
   4.20000000000000107   0.26792459160897342
   4.30000000000000071   0.27238489443291242
   4.40000000000000036   0.27648321999365372
   4.50000000000000000   0.28023008655504067
   4.59999999999999964   0.28364100214007870
   4.69999999999999929   0.28673174551776298
   4.79999999999999893   0.28951401783960479
   4.89999999999999858   0.29199378759169781
   4.99999999999999822   0.29417212859276265
   5.09999999999999787   0.29604535743765004
   5.19999999999999751   0.29760067238070065
   5.29999999999999716   0.29880771324018168
   5.39999999999999680   0.29961317965210055
   5.49999999999999645   0.29994791603461152
   5.59999999999999609   0.29974968699556526
   5.69999999999999574   0.29899443630898059
   5.79999999999999538   0.29772218467829936
   5.89999999999999503   0.29604505293716549
   5.99999999999999467   0.29413208076916747
   6.09999999999999432   0.29217439468063455
   6.19999999999999396   0.29034185473111562
   6.29999999999999361   0.28874600539802853
   6.39999999999999325   0.28742133326633645
   6.49999999999999289   0.28632768936905623
   6.59999999999999254   0.28536686751145629
   6.69999999999999218   0.28440307975299384
   6.79999999999999183   0.28328217150266394
   6.89999999999999147   0.28185155964360831
   6.99999999999999112   0.27998388886683739
   7.09999999999999076   0.27760143755072175
   7.19999999999999041   0.27469265619685196
   7.29999999999999005   0.27131370948696720
   7.39999999999998970   0.26757501035187531
   7.49999999999998934   0.26361886505904214
   7.59999999999998899   0.25959545350016389
   7.69999999999998863   0.25564193732017881
   7.79999999999998828   0.25186708183670803
   7.89999999999998792   0.24834313564439847
   7.99999999999998757   0.24510678424249951
   8.09999999999998721   0.24216996545680658
   8.19999999999998685   0.23953824475413657
   8.29999999999998650   0.23722987731702885
   8.39999999999998614   0.23528528188527892
   8.49999999999998579   0.23375868656599758
   8.59999999999998543   0.23269290513973143
   8.69999999999998508   0.23208934575562412
   8.79999999999998472   0.23188935535761418
   8.89999999999998437   0.23197674305144836
   8.99999999999998401   0.23220058178495379
   9.09999999999998366   0.23240970466742567
   9.19999999999998330   0.23248795895187122
   9.29999999999998295   0.23238007594747664
   9.39999999999998259   0.23210073417936516
   9.49999999999998224   0.23172496880930116
   9.59999999999998188   0.23136508610487366
   9.69999999999998153   0.23114326314606815
   9.79999999999998117   0.23116774840997351
   9.89999999999998082   0.23151630735343023
   9.99999999999998046   0.23222680370406665
  10.09999999999998010   0.23329314349879005
  10.19999999999997975   0.23466536432577709
  10.29999999999997939   0.23625453019161644
  10.39999999999997904   0.23794424908021256
  10.49999999999997868   0.23960916600481424
  10.59999999999997833   0.24113733035910001
  10.69999999999997797   0.24245072815912741
  10.79999999999997762   0.24351820636945426
  10.89999999999997726   0.24435659238850430
  10.99999999999997691   0.24501838614495056
  11.09999999999997655   0.24556883942971011
  11.19999999999997620   0.24606043323089655
  11.29999999999997584   0.24651474441648757
  11.39999999999997549   0.24691873356608202
  11.49999999999997513   0.24723675145474264
  11.59999999999997478   0.24743325537903779
  11.69999999999997442   0.24749543102219346
  11.79999999999997407   0.24744290948070893
  11.89999999999997371   0.24731723764948257
  11.99999999999997335   0.24715539364005357
  12.09999999999997300   0.24696206028052026
  12.19999999999997264   0.24669683072352885
  12.29999999999997229   0.24628356199627710
  12.39999999999997193   0.24563671964341344
  12.49999999999997158   0.24469293932002245
  12.59999999999997122   0.24343684536153723
  12.69999999999997087   0.24191306508779731
  12.79999999999997051   0.24021858101140783
  12.89999999999997016   0.23847456049080895
  12.99999999999996980   0.23678705279365997
  13.09999999999996945   0.23521567661261664
  13.19999999999996909   0.23376799508576068
  13.29999999999996874   0.23242190977339744
  13.39999999999996838   0.23116007264464439
  13.49999999999996803   0.22999363449008975
  13.59999999999996767   0.22896170222722265
  13.69999999999996732   0.22810927639620410
  13.79999999999996696   0.22745866595755612
  13.89999999999996660   0.22699107271528579
  13.99999999999996625   0.22664725237663810
  14.09999999999996589   0.22634537363514357
  14.19999999999996554   0.22600733056619163
  14.29999999999996518   0.22558364555412103
  14.39999999999996483   0.22506876428420949
  14.49999999999996447   0.22450065004825392
  14.59999999999996412   0.22394232338584000
  14.69999999999996376   0.22344966196386554
  14.79999999999996341   0.22303754981977930
  14.89999999999996305   0.22266084283375964
  14.99999999999996270   0.22222259844727124
  15.09999999999996234   0.22160883306262225
  15.19999999999996199   0.22073385528884343
  15.29999999999996163   0.21957420442049741
  15.39999999999996128   0.21817710205223603
  15.49999999999996092   0.21664414810016425
  15.59999999999996056   0.21510167046136708
  15.69999999999996021   0.21367053321326476
  15.79999999999995985   0.21244321224879545
  15.89999999999995950   0.21147048804135413
  15.99999999999995914   0.21075761636040177
  16.09999999999995879   0.21026934977238793
  16.19999999999996021   0.20994203438661033
  16.29999999999996163   0.20969934293545381
  16.39999999999996305   0.20946797506231882
  16.49999999999996447   0.20919082416337925
  16.59999999999996589   0.20883640936628625
  16.69999999999996732   0.20840463691676978
  16.79999999999996874   0.20792934806788599
  16.89999999999997016   0.20747644731972309
  16.99999999999997158   0.20713459484261398
  17.09999999999997300   0.20699745565884040
  17.19999999999997442   0.20714189460711666
  17.29999999999997584   0.20761005246830611
  17.39999999999997726   0.20840139511281233
  17.49999999999997868   0.20947538144856465
  17.59999999999998010   0.21076059568817515
  17.69999999999998153   0.21216509018631458
  17.79999999999998295   0.21358553102506458
  17.89999999999998437   0.21491661255953853
  17.99999999999998579   0.21606303528566806
  18.09999999999998721   0.21695321159336378
  18.19999999999998863   0.21755072351861277
  18.29999999999999005   0.21786042620169474
  18.39999999999999147   0.21792904463952084
  18.49999999999999289   0.21783976249029566
  18.59999999999999432   0.21769713483968711
  18.69999999999999574   0.21759985504719662
  18.79999999999999716   0.21760709923822036
  18.89999999999999858   0.21771246600553620
  19.00000000000000000   0.21783933335283265
  19.10000000000000142   0.21786187155761594
  19.20000000000000284   0.21764337523767024
  19.30000000000000426   0.21707616507584440
  19.40000000000000568   0.21610905516241147
  19.50000000000000711   0.21475629153485190
  19.60000000000000853   0.21308916769947325
  19.70000000000000995   0.21121526836233220
  19.80000000000001137   0.20925250929288966
  19.90000000000001279   0.20730668020710039
  20.00000000000001421   0.20545971366938859
  20.10000000000001563   0.20377046536192422
  20.20000000000001705   0.20228352944686578
  20.30000000000001847   0.20103830771298703
  20.40000000000001990   0.20007164822229015
  20.50000000000002132   0.19941186906284369
  20.60000000000002274   0.19906744303618909
  20.70000000000002416   0.19901683854256116
  20.80000000000002558   0.19920514294785252
  20.90000000000002700   0.19954951894600070
  21.00000000000002842   0.19995199291364771
  21.10000000000002984   0.20031567730994940
  21.20000000000003126   0.20055959823894950
  21.30000000000003268   0.20062861790627781
  21.40000000000003411   0.20049789837924842
  21.50000000000003553   0.20017339526927677
  21.60000000000003695   0.19968936536225448
  21.70000000000003837   0.19910235877204471
  21.80000000000003979   0.19848096680535851
  21.90000000000004121   0.19789213539882647
  22.00000000000004263   0.19738692422083409
  22.10000000000004405   0.19699024084867123
  22.20000000000004547   0.19669930618341974
  22.30000000000004690   0.19649295570157926
  22.40000000000004832   0.19634790997883522
  22.50000000000004974   0.19625223697937819
  22.60000000000005116   0.19620617296432044
  22.70000000000005258   0.19620829018775812
  22.80000000000005400   0.19623568395828747
  22.90000000000005542   0.19623256889081903
  23.00000000000005684   0.19611778558453147
  23.10000000000005826   0.19581034965895985
  23.20000000000005969   0.19526118322393518
  23.30000000000006111   0.19447626190786160
  23.40000000000006253   0.19352225920957467
  23.50000000000006395   0.19251441124069626
  23.60000000000006537   0.19159211229609580
  23.70000000000006679   0.19088950915475630
  23.80000000000006821   0.19050736163734666
  23.90000000000006963   0.19049064288321041
  24.00000000000007105   0.19081565812155366
  24.10000000000007248   0.19139076201353783
  24.20000000000007390   0.19207352858312093
  24.30000000000007532   0.19270262643194486
  24.40000000000007674   0.19313620510327739
  24.50000000000007816   0.19328453067194801
  24.60000000000007958   0.19312616008593605
  24.70000000000008100   0.19270325169740279
  24.80000000000008242   0.19209863182219805
  24.90000000000008384   0.19140210801999857
  25.00000000000008527   0.19067666496173816
  25.10000000000008669   0.18993728962957099
  25.20000000000008811   0.18915344094734765
  25.30000000000008953   0.18827691849429690
  25.40000000000009095   0.18728289385674762
  25.50000000000009237   0.18620296541048470
  25.60000000000009379   0.18513292887229410
  25.70000000000009521   0.18421160933542705
  25.80000000000009663   0.18358057430958774
  25.90000000000009805   0.18334111112074686
  26.00000000000009948   0.18352437188843634
  26.10000000000010090   0.18408513235089002
  26.20000000000010232   0.18492047709422005
  26.30000000000010374   0.18590459862241629
  26.40000000000010516   0.18692458686257510
  26.50000000000010658   0.18790350341862480
  26.60000000000010800   0.18880537046816759
  26.70000000000010942   0.18962608994955335
  26.80000000000011084   0.19037825749026555
  26.90000000000011227   0.19107527539749947
  27.00000000000011369   0.19171698058381015
  27.10000000000011511   0.19228038974885964
  27.20000000000011653   0.19272161822281639
  27.30000000000011795   0.19299096461301196
  27.40000000000011937   0.19305394975163476
  27.50000000000012079   0.19290701437290203
  27.60000000000012221   0.19258195631338193
  27.70000000000012363   0.19214055393123003
  27.80000000000012506   0.19166237721295110
  27.90000000000012648   0.19122679273529164
  28.00000000000012790   0.19089134882932285
  28.10000000000012932   0.19067365986118956
  28.20000000000013074   0.19054590501587765
  28.30000000000013216   0.19044540427364859
  28.40000000000013358   0.19029559294682838
  28.50000000000013500   0.19002730262465745
  28.60000000000013642   0.18959282151567533
  28.70000000000013785   0.18896988591804331
  28.80000000000013927   0.18815581890317298
  28.90000000000014069   0.18715487289947630
  29.00000000000014211   0.18596539053757208
  29.10000000000014353   0.18457498400093059
  29.20000000000014495   0.18296858301654007
  29.30000000000014637   0.18114697994227982
  29.40000000000014779   0.17914660940824459
  29.50000000000014921   0.17704923497486380
  29.60000000000015064   0.17497458669967395
  29.70000000000015206   0.17305733497233389
  29.80000000000015348   0.17141721020619394
  29.90000000000015490   0.17013383030976148
  30.00000000000015632   0.16923513419076627
  30.10000000000015774   0.16870194025840027
  30.20000000000015916   0.16848449516810604
  30.30000000000016058   0.16852341611031454
  30.40000000000016200   0.16876823731393589
  30.50000000000016342   0.16918935186478146
  30.60000000000016485   0.16978062514902464
  30.70000000000016627   0.17055111654002547
  30.80000000000016769   0.17150807027923004
  30.90000000000016911   0.17263842727934070
  31.00000000000017053   0.17389741601593292
  31.10000000000017195   0.17520853313626919
  31.20000000000017337   0.17647349408929347
  31.30000000000017479   0.17758772491600539
  31.40000000000017621   0.17845677936192131
  31.50000000000017764   0.17901027647088749
  31.60000000000017906   0.17921147159663955
  31.70000000000018048   0.17906156598304995
  31.80000000000018190   0.17859817152372565
  31.90000000000018332   0.17788793092881369
  32.00000000000018474   0.17701461429216112
  32.10000000000018616   0.17606539100440557
  32.20000000000018758   0.17511852020370067
  32.30000000000018900   0.17423468422852859
  32.40000000000019043   0.17345185005775332
  32.50000000000019185   0.17278215983734496
  32.60000000000019327   0.17221090560425439
  32.70000000000019469   0.17170074616296846
  32.80000000000019611   0.17120456248487934
  32.90000000000019753   0.17068522570996708
  33.00000000000019895   0.17013359586906712
  33.10000000000020037   0.16957412181093770
  33.20000000000020179   0.16905331716023492
  33.30000000000020322   0.16861637929566531
  33.40000000000020464   0.16828434945187473
  33.50000000000020606   0.16804378918432256
  33.60000000000020748   0.16785364333151806
  33.70000000000020890   0.16766481086786642
  33.80000000000021032   0.16744236897989598
  33.90000000000021174   0.16718063166422634
  34.00000000000021316   0.16690574431200772
  34.10000000000021458   0.16666620035254107
  34.20000000000021600   0.16651614252541530
  34.30000000000021743   0.16649873379687380
  34.40000000000021885   0.16663706877540183
  34.50000000000022027   0.16693686897398807
  34.60000000000022169   0.16739812545548730
  34.70000000000022311   0.16802577683661243
  34.80000000000022453   0.16882914124013976
  34.90000000000022595   0.16980800389313497
  35.00000000000022737   0.17093363241406526
  35.10000000000022879   0.17213673637714100
  35.20000000000023022   0.17330910395965898
  35.30000000000023164   0.17431742243701684
  35.40000000000023306   0.17502363924025047
  35.50000000000023448   0.17530652443326597
  35.60000000000023590   0.17508013317971791
  35.70000000000023732   0.17430573237128127
  35.80000000000023874   0.17299599509011007
  35.90000000000024016   0.17121330970459514
  36.00000000000024158   0.16906503434169451
  36.10000000000024301   0.16669674761133751
  36.20000000000024443   0.16428236283875580
  36.30000000000024585   0.16200971056732821
  36.40000000000024727   0.16006127094238848
  36.50000000000024869   0.15859054823543747
  36.60000000000025011   0.15769569863984786
  36.70000000000025153   0.15739532388405056
  36.80000000000025295   0.15761548411356285
  36.90000000000025437   0.15819709683807168
  37.00000000000025580   0.15892652986872496
  37.10000000000025722   0.15958306687243801
  37.20000000000025864   0.15999043561466636
  37.30000000000026006   0.16005782868387722
  37.40000000000026148   0.15979827651576214
  37.50000000000026290   0.15931858346625927
  37.60000000000026432   0.15878428521123017
  37.70000000000026574   0.15837172492949261
  37.80000000000026716   0.15822292813857383
  37.90000000000026859   0.15841539143286676
  38.00000000000027001   0.15895090464701492
  38.10000000000027143   0.15976107055975944
  38.20000000000027285   0.16072520220961761
  38.30000000000027427   0.16169589878250998
  38.40000000000027569   0.16252575495179306
  38.50000000000027711   0.16308772700888810
  38.60000000000027853   0.16328573884997977
  38.70000000000027995   0.16305878016706390
  38.80000000000028137   0.16238369030011712
  38.90000000000028280   0.16127715858930525
  39.00000000000028422   0.15979333118240785
  39.10000000000028564   0.15801615560404808
  39.20000000000028706   0.15605162588239774
  39.30000000000028848   0.15402565917008879
  39.40000000000028990   0.15208647477497550
  39.50000000000029132   0.15040308631370047
  39.60000000000029274   0.14915083410563626
  39.70000000000029416   0.14848131124418229
  39.80000000000029559   0.14848385436402278
  39.90000000000029701   0.14915374624804190
  40.00000000000029843   0.15038282299144817
  40.10000000000029985   0.15197929950236114
  40.20000000000030127   0.15371032822406477
  40.30000000000030269   0.15535194222827436
  40.40000000000030411   0.15673150728101062
  40.50000000000030553   0.15775442956957136
  40.60000000000030695   0.15841256475983362
  40.70000000000030838   0.15877384404034170
  40.80000000000030980   0.15895433298198042
  40.90000000000031122   0.15907826467605765
  41.00000000000031264   0.15923692968980685
  41.10000000000031406   0.15945969402053903
  41.20000000000031548   0.15970715197298577
  41.30000000000031690   0.15988780496386570
  41.40000000000031832   0.15988990756169832
  41.50000000000031974   0.15961539349876749
  41.60000000000032117   0.15900550034354038
  41.70000000000032259   0.15805406343012984
  41.80000000000032401   0.15680952812003976
  41.90000000000032543   0.15536905140873031
  42.00000000000032685   0.15386786600453084
  42.10000000000032827   0.15246455743137205
  42.20000000000032969   0.15132033379582624
  42.30000000000033111   0.15057169458358333
  42.40000000000033253   0.15030153599619364
  42.50000000000033396   0.15051852002523089
  42.60000000000033538   0.15115313304816846
