# Spinless fermions Hamiltonian with random disorder and nearest neighbour interactions
# L=18x2 (size), J=0.5 (hoping amplitude), V=0.5 (interaction), W/J=6 (disorder strength), N=75 (disorder realizations), T=25 (number of trajectories)
# Evolution of Imbalance in time (fTWA method)
# time t, Imbalance I

   0.00000000000000000   1.00000000000000000
   0.10000000000000003   0.99092681802550220
   0.20000000000000007   0.96401272818975314
   0.29999999999999988   0.92154670219760815
   0.40000000000000013   0.86702348335918755
   0.50000000000000000   0.80464238930021958
   0.59999999999999976   0.73870273098561345
   0.69999999999999973   0.67301798770457599
   0.80000000000000027   0.61048537353409715
   0.89999999999999969   0.55290270871748992
   0.99999999999999989   0.50104022399391468
   1.10000000000000053   0.45489789884390924
   1.19999999999999951   0.41404209164348565
   1.30000000000000027   0.37791845154233394
   1.39999999999999947   0.34606641168843982
   1.50000000000000022   0.31820480782279165
   1.60000000000000098   0.29420659811783401
   1.70000000000000084   0.27401082066784682
   1.79999999999999938   0.25752130491721564
   1.90000000000000036   0.24452907574488861
   2.00000000000000044   0.23468396532874966
   2.10000000000000098   0.22752563417248520
   2.20000000000000107   0.22255896916180437
   2.29999999999999938   0.21933634228550636
   2.39999999999999991   0.21750786080463078
   2.50000000000000044   0.21682382880210715
   2.60000000000000098   0.21710555402385584
   2.70000000000000240   0.21821608865919823
   2.80000000000000249   0.22004886800779649
   2.90000000000000080   0.22252740400456900
   3.00000000000000044   0.22560050202455481
   3.10000000000000009   0.22922781808556550
   3.20000000000000240   0.23336241388551329
   3.30000000000000160   0.23793818837221362
   3.40000000000000169   0.24286375370308727
   3.50000000000000044   0.24802008976217621
   3.60000000000000409   0.25326243311207802
   3.70000000000000240   0.25843289544470222
   3.80000000000000115   0.26338861362368715
   3.90000000000000480   0.26803763684931836
   4.00000000000000089   0.27236373549750348
   4.09999999999999876   0.27642544450937029
   4.20000000000000195   0.28032998342676063
   4.29999999999999805   0.28419398681434249
   4.40000000000000213   0.28810297891697495
   4.50000000000000000   0.29207710433038181
   4.59999999999999787   0.29605073668416876
   4.70000000000000195   0.29987464076200498
   4.79999999999999805   0.30334219441841997
   4.90000000000000124   0.30623050509750788
   4.99999999999999911   0.30834455292517571
   5.09999999999999520   0.30955707522198100
   5.19999999999999929   0.30984046902442880
   5.29999999999999805   0.30928561914165659
   5.39999999999999591   0.30809912072913953
   5.49999999999999911   0.30657225965874457
   5.59999999999999520   0.30502530012318063
   5.69999999999999218   0.30374264632994302
   5.79999999999999538   0.30291898454468824
   5.89999999999999414   0.30263060752514309
   5.99999999999999645   0.30283476244605950
   6.09999999999999432   0.30339102440401411
   6.19999999999999218   0.30409614024711651
   6.29999999999999361   0.30472580173691288
   6.39999999999999414   0.30507859454507663
   6.49999999999999645   0.30501438027731193
   6.59999999999999343   0.30447497316643363
   6.69999999999998952   0.30347973000455541
   6.79999999999999094   0.30210239313518356
   6.89999999999998881   0.30044277752329568
   6.99999999999999201   0.29860132438214276
   7.09999999999999343   0.29665813763414928
   7.19999999999998952   0.29466004111178279
   7.29999999999998561   0.29262283070042533
   7.39999999999998614   0.29055069278227630
   7.49999999999999112   0.28846141894096028
   7.59999999999999254   0.28639806820304481
   7.69999999999998863   0.28441658594534913
   7.79999999999998561   0.28255854205575653
   7.89999999999998614   0.28082866703467035
   7.99999999999999112   0.27918873162665475
   8.09999999999999254   0.27756531334028328
   8.19999999999998685   0.27586440702116560
   8.29999999999998472   0.27398993028457774
   8.39999999999998437   0.27186657839773753
   8.49999999999999112   0.26946446396958945
   8.59999999999998721   0.26681769023358604
   8.69999999999998685   0.26402823648374008
   8.79999999999998472   0.26125095729374331
   8.89999999999997904   0.25866326879383350
   8.99999999999998046   0.25643068385708545
   9.09999999999998721   0.25467899989081233
   9.19999999999998685   0.25347577046060543
   9.29999999999998295   0.25282106079454808
   9.39999999999997904   0.25265342348194803
   9.49999999999997868   0.25287586476018198
   9.59999999999998721   0.25339229451496642
   9.69999999999998685   0.25413467494060238
   9.79999999999998117   0.25506845950746826
   9.89999999999997904   0.25617976472926163
   9.99999999999997691   0.25745674970093652
  10.09999999999997300   0.25887629742972679
  10.19999999999998330   0.26040077988714966
  10.29999999999998117   0.26198381984325386
  10.39999999999997904   0.26357989294916728
  10.49999999999997513   0.26515024586080627
  10.59999999999997300   0.26665988623100828
  10.69999999999998153   0.26806812414618247
  10.79999999999997939   0.26932129454452419
  10.89999999999997726   0.27035525148653783
  10.99999999999997513   0.27110900493200324
  11.09999999999997300   0.27154349212284323
  11.19999999999998153   0.27165546049419126
  11.29999999999997762   0.27147941405262715
  11.39999999999997549   0.27107829445383319
  11.49999999999997513   0.27052925249943222
  11.59999999999997300   0.26990999504293522
  11.69999999999998153   0.26928701028703844
  11.79999999999997584   0.26870604991132818
  11.89999999999997549   0.26818771534703334
  11.99999999999997691   0.26773051967980988
  12.09999999999996767   0.26731916336659262
  12.19999999999997087   0.26693398456956680
  12.29999999999997229   0.26655924196462250
  12.39999999999997549   0.26618662613869676
  12.49999999999997691   0.26580981261524506
  12.59999999999996767   0.26541265286077453
  12.69999999999997087   0.26496149557680632
  12.79999999999997229   0.26441128188030460
  12.89999999999997549   0.26372581866605838
  12.99999999999996447   0.26290257124973454
  13.09999999999996767   0.26198806804820385
  13.19999999999997087   0.26107251734580167
  13.29999999999996163   0.26026085134262028
  13.39999999999997371   0.25963078750870588
  13.49999999999996447   0.25919862339547028
  13.59999999999996767   0.25891117685533099
  13.69999999999996909   0.25866789524673073
  13.79999999999995985   0.25836103669346888
  13.89999999999997371   0.25791511607170386
  13.99999999999996447   0.25731200119084313
  14.09999999999996589   0.25659697913049601
  14.19999999999996909   0.25586589794465703
  14.29999999999995985   0.25523606262875231
  14.39999999999997371   0.25480832186984093
  14.49999999999996092   0.25463337412714571
  14.59999999999996412   0.25469678302359455
  14.69999999999997087   0.25492954196539458
  14.79999999999995985   0.25523716508686189
  14.89999999999997371   0.25553171154434506
  14.99999999999995914   0.25575287577028027
  15.09999999999996412   0.25587238970150444
  15.19999999999997087   0.25588435994954634
  15.29999999999995630   0.25578734546288906
  15.39999999999996483   0.25556432099023568
  15.49999999999995737   0.25517063187790262
  15.59999999999996412   0.25454240623484931
  15.69999999999994955   0.25362806019075468
  15.79999999999995630   0.25242846548481379
  15.89999999999996483   0.25102301957989676
  15.99999999999995737   0.24956491329686259
  16.09999999999996234   0.24824356613257326
  16.19999999999994955   0.24722814432895282
  16.29999999999995808   0.24661528397091192
  16.39999999999997371   0.24640139251734539
  16.49999999999996092   0.24648722215069885
  16.59999999999996589   0.24670738402491921
  16.69999999999997442   0.24686990255972641
  16.79999999999995808   0.24679506347138955
  16.89999999999997371   0.24635125999417740
  16.99999999999998224   0.24548716026402137
  17.09999999999996945   0.24425202009293501
  17.19999999999998508   0.24278946651081740
  17.29999999999997229   0.24129776038761369
  17.39999999999997726   0.23996970533160492
  17.49999999999998579   0.23893865071249218
  17.59999999999996945   0.23825070257877243
  17.69999999999998508   0.23786778935338593
  17.79999999999997229   0.23769613116131660
  17.89999999999998082   0.23762914667801358
  17.99999999999999645   0.23758735263823491
  18.09999999999998366   0.23753615521151639
  18.19999999999998863   0.23747518950249050
  18.29999999999999716   0.23741350141646242
  18.39999999999998082   0.23735290804090142
  18.49999999999999645   0.23728914214166474
  18.60000000000000497   0.23722201879299831
  18.69999999999999218   0.23716031883104904
  18.80000000000000782   0.23711630610046200
  18.89999999999999147   0.23709633482760931
  19.00000000000000000   0.23709645788648559
  19.10000000000000853   0.23710475330427211
  19.19999999999999218   0.23710487565970287
  19.30000000000000782   0.23707751232038096
  19.39999999999999503   0.23700323585254318
  19.50000000000000355   0.23686983855534119
  19.60000000000001918   0.23667982221559469
  19.70000000000000284   0.23645069663967988
  19.80000000000001137   0.23620709369543197
  19.90000000000001990   0.23597201257489100
  20.00000000000000355   0.23576418278913289
  20.10000000000001918   0.23559956262010567
  20.20000000000003126   0.23548942482167570
  20.30000000000001492   0.23543256770013102
  20.40000000000003055   0.23540750021695389
  20.50000000000001421   0.23537302819519929
  20.60000000000002274   0.23528127632217324
  20.70000000000003126   0.23509853425026453
  20.80000000000001847   0.23482241972992460
  20.90000000000003055   0.23448527799177185
  21.00000000000001421   0.23414225112069217
  21.10000000000002629   0.23385071350805220
  21.20000000000004192   0.23365113912630928
  21.30000000000002913   0.23355678396972787
  21.40000000000003766   0.23355243179633794
  21.50000000000004263   0.23359759217148876
  21.60000000000002629   0.23363257788351424
  21.70000000000004192   0.23359119035816137
  21.80000000000005400   0.23342104613346493
  21.90000000000004121   0.23310324539786451
  22.00000000000004974   0.23265957319080977
  22.10000000000003695   0.23214289980433420
  22.20000000000004547   0.23161664182412087
  22.30000000000005400   0.23113303323177992
  22.40000000000004476   0.23071730797568299
  22.50000000000004974   0.23036202245621695
  22.60000000000003695   0.23003423611156762
  22.70000000000004903   0.22969244494093524
  22.80000000000006466   0.22930194650824073
  22.90000000000005187   0.22883830362619198
  23.00000000000005329   0.22828084522525652
  23.10000000000006537   0.22760863052717520
  23.20000000000004903   0.22680792045626347
  23.30000000000006466   0.22588697701862401
  23.40000000000007674   0.22488574938979866
  23.50000000000006750   0.22387113046777823
  23.60000000000006892   0.22291744613766185
  23.70000000000005969   0.22208022739806965
  23.80000000000006821   0.22137522081900851
  23.90000000000007674   0.22077230555266378
  24.00000000000006750   0.22020722391135664
  24.10000000000006892   0.21960561609778603
  24.20000000000005969   0.21890817596027504
  24.30000000000007176   0.21808745370209201
  24.40000000000008740   0.21715372728114921
  24.50000000000007816   0.21615156702702432
  24.60000000000009024   0.21514794556432359
  24.70000000000008100   0.21421307500008144
  24.80000000000007176   0.21340022830370126
  24.90000000000008740   0.21273400312146126
  25.00000000000009948   0.21221063779914190
  25.10000000000009024   0.21180555066179121
  25.20000000000008811   0.21148172417459590
  25.30000000000008242   0.21119534057234846
  25.40000000000009095   0.21089811714093942
  25.50000000000009948   0.21054058553103119
  25.60000000000009734   0.21008312316397559
  25.70000000000008811   0.20951479822104757
  25.80000000000008242   0.20886836900018821
  25.90000000000009450   0.20821700300693963
  26.00000000000011013   0.20765056941824089
  26.10000000000010090   0.20724628998962530
  26.20000000000009166   0.20705268606723995
  26.30000000000010374   0.20709145846076621
  26.40000000000009450   0.20736517937632495
  26.50000000000011013   0.20785960676196930
  26.60000000000012221   0.20854354485782881
  26.70000000000012008   0.20937400878909604
  26.80000000000011084   0.21030438710504368
  26.90000000000010161   0.21128618935269441
  27.00000000000011369   0.21226252635772874
  27.10000000000012932   0.21316322107428243
  27.20000000000012008   0.21391186552062502
  27.30000000000011084   0.21444365365106516
  27.40000000000010516   0.21472263204343739
  27.50000000000011724   0.21474842129517488
  27.60000000000013287   0.21455210639784847
  27.70000000000012719   0.21418796496086426
  27.80000000000013571   0.21372583813609855
  27.90000000000012292   0.21324293016065959
  28.00000000000011724   0.21281266617513989
  28.10000000000013287   0.21249260017383434
  28.20000000000014495   0.21231566987225250
  28.30000000000014282   0.21228625366616838
  28.40000000000013358   0.21238023054199215
  28.50000000000012434   0.21255048200717439
  28.60000000000013642   0.21274045766306324
  28.70000000000015206   0.21290378667147278
  28.80000000000014637   0.21302155778375037
  28.90000000000012648   0.21310706774947585
  29.00000000000012434   0.21319317040446453
  29.10000000000013998   0.21330716242748002
  29.20000000000015561   0.21344605337855607
  29.30000000000014992   0.21356532214584165
  29.40000000000013713   0.21358692180866284
  29.50000000000014566   0.21342313632973553
  29.60000000000013998   0.21300639894465034
  29.70000000000015561   0.21231264539791819
  29.80000000000017479   0.21136853187010754
  29.90000000000016911   0.21023946158881612
  30.00000000000014921   0.20900299824763074
  30.10000000000014708   0.20772027372554480
  30.20000000000015916   0.20642179635185315
  30.30000000000017479   0.20511589654790485
  30.40000000000016911   0.20381100535008059
  30.50000000000014921   0.20253259785481079
  30.60000000000014708   0.20132158721005206
  30.70000000000016271   0.20021652145657348
  30.80000000000017835   0.19923387262314457
  30.90000000000017977   0.19836061323903278
  31.00000000000019185   0.19756284422230994
  31.10000000000016485   0.19680343031370615
  31.20000000000016271   0.19605842698097975
  31.30000000000017835   0.19532708695073150
  31.40000000000019753   0.19463642595609276
  31.50000000000019185   0.19404074580991978
  31.60000000000017195   0.19361270346557830
  31.70000000000016982   0.19342478170016367
  31.80000000000018190   0.19352748897734451
  31.90000000000019753   0.19393437631274441
  32.00000000000019895   0.19461920258445711
  32.10000000000017195   0.19552279754928026
  32.20000000000016627   0.19656378485200121
  32.30000000000018900   0.19764818845071133
  32.40000000000019753   0.19867622739606361
  32.50000000000019895   0.19954949062465380
  32.60000000000017195   0.20018267668167980
  32.70000000000018758   0.20051880281656834
  32.80000000000018900   0.20054223139986577
  32.90000000000019753   0.20028428798181175
  33.00000000000022027   0.19981899530439476
  33.10000000000022169   0.19924960365640040
  33.20000000000019469   0.19868924050764922
  33.30000000000018900   0.19824017705756528
  33.40000000000020464   0.19797606064428280
  33.50000000000022027   0.19793009005986331
  33.60000000000022169   0.19809040163931574
  33.70000000000019469   0.19840305459572402
  33.80000000000018900   0.19878261932860358
  33.90000000000021174   0.19912986622073109
  34.00000000000022027   0.19935430541442545
  34.10000000000022169   0.19939568916840056
  34.20000000000023732   0.19923632459871762
  34.30000000000021032   0.19889976922173172
  34.40000000000021174   0.19843866143111769
  34.50000000000022027   0.19791725066919136
  34.60000000000024301   0.19739215208581168
  34.70000000000024443   0.19689600032310628
  34.80000000000021743   0.19643260986345068
  34.90000000000021174   0.19598912034196553
  35.00000000000022737   0.19555966185751100
  35.10000000000024301   0.19516611018628538
  35.20000000000024443   0.19486154488736127
  35.30000000000021743   0.19471126620560927
  35.40000000000021174   0.19476067473713243
  35.50000000000023448   0.19500926195191046
  35.60000000000024301   0.19540528640394331
  35.70000000000024443   0.19586055715175907
  35.80000000000021743   0.19627498884132358
  35.90000000000023306   0.19656180224285355
  36.00000000000023448   0.19666810821366096
  36.10000000000024301   0.19658724124116719
  36.20000000000026574   0.19636014816324127
  36.30000000000026716   0.19606358962830817
  36.40000000000024016   0.19578437333936502
  36.50000000000023448   0.19558527353001448
  36.60000000000025011   0.19547677368188143
  36.70000000000026574   0.19540918340460184
  36.80000000000026716   0.19528928060777881
  36.90000000000023306   0.19501360334543516
  37.00000000000023448   0.19450488837381730
  37.10000000000025722   0.19373860130202089
  37.20000000000026574   0.19275094310272967
  37.30000000000027427   0.19162790335203325
  37.40000000000028280   0.19048330630652544
  37.50000000000024869   0.18943508991538230
  37.60000000000025722   0.18858399394593320
  37.70000000000026574   0.18799567161791894
  37.80000000000028848   0.18768934843262450
  37.90000000000028990   0.18763936102556616
  38.00000000000025580   0.18779228295635078
  38.10000000000025722   0.18809010847144061
  38.20000000000027285   0.18848259963251990
  38.30000000000028848   0.18892251410926009
  38.40000000000028990   0.18935644468264012
  38.50000000000025580   0.18972782142027947
  38.60000000000025722   0.18999178653367690
  38.70000000000027995   0.19012650754288229
  38.80000000000028848   0.19013131118365903
  38.90000000000029701   0.19001813545706039
  39.00000000000026290   0.18980718818902362
  39.10000000000027143   0.18952722713427542
  39.20000000000027995   0.18921165927000566
  39.30000000000028848   0.18888674535492270
  39.40000000000031122   0.18856148869682221
  39.50000000000031264   0.18823231357809123
  39.60000000000027853   0.18790238089692324
  39.70000000000027995   0.18759990703558455
  39.80000000000029559   0.18738050437612644
  39.90000000000031122   0.18731358779458640
  40.00000000000031264   0.18746405766198179
  40.10000000000027853   0.18787801502087739
  40.20000000000027995   0.18857327776874458
  40.30000000000030269   0.18953230247210862
  40.40000000000031122   0.19069746251359643
  40.50000000000031974   0.19197106473604308
  40.60000000000033538   0.19322150481236783
  40.70000000000029416   0.19429472800365061
  40.80000000000030269   0.19503089718152250
  40.90000000000031122   0.19528819230901420
  41.00000000000032685   0.19497266811066613
  41.10000000000033538   0.19406532349614430
  41.20000000000030127   0.19263359856223877
  41.30000000000030980   0.19082018096260356
  41.40000000000031832   0.18881312094211319
  41.50000000000032685   0.18680885761218338
  41.60000000000033538   0.18497905523177743
  41.70000000000030127   0.18344576449778621
  41.80000000000030980   0.18226455544975217
  41.90000000000032543   0.18141715043851980
  42.00000000000033396   0.18082067924868470
  42.10000000000033538   0.18035834940711989
  42.20000000000030127   0.17992192443461821
  42.30000000000031690   0.17944530893533109
  42.40000000000032543   0.17891503737215428
  42.50000000000033396   0.17835896500190970
  42.60000000000035669   0.17782374668589590
