# Spinless fermions Hamiltonian with random disorder and nearest neighbour interactions
# L=6x6 (size), J=0.5 (hoping amplitude), V=0.5 (interaction), W/J=6 (disorder strength), N=75 (disorder realizations), T=25 (number of trajectories)
# Evolution of Imbalance in time (fTWA method)
# time t, Imbalance I

   0.00000000000000000   1.00000000000000000
   0.10000000000000003   0.99186824657116557
   0.20000000000000007   0.96785595845321726
   0.29999999999999988   0.92995358020343932
   0.40000000000000013   0.88116947574854365
   0.50000000000000000   0.82509408775000304
   0.59999999999999976   0.76539920473602863
   0.69999999999999973   0.70538249797769581
   0.80000000000000027   0.64764529944035987
   0.89999999999999969   0.59394127117704565
   0.99999999999999989   0.54518818434410521
   1.10000000000000053   0.50160962469592718
   1.19999999999999951   0.46295924326545917
   1.30000000000000027   0.42876653206323995
   1.39999999999999947   0.39853827781127421
   1.50000000000000022   0.37187115243439495
   1.60000000000000098   0.34847542517582664
   1.70000000000000084   0.32814746382455684
   1.79999999999999938   0.31073150892460005
   1.90000000000000036   0.29608706826795433
   2.00000000000000044   0.28406046764793341
   2.10000000000000098   0.27446167531053861
   2.20000000000000107   0.26705433509577070
   2.29999999999999938   0.26156296901271642
   2.39999999999999991   0.25769240890957901
   2.50000000000000044   0.25515088936350144
   2.60000000000000098   0.25366974777996587
   2.70000000000000240   0.25301625674605061
   2.80000000000000249   0.25299932737471564
   2.90000000000000080   0.25346873284589339
   3.00000000000000044   0.25430813164692845
   3.10000000000000009   0.25542262853090503
   3.20000000000000240   0.25672382802838134
   3.30000000000000160   0.25811758674783281
   3.40000000000000169   0.25950054799236000
   3.50000000000000044   0.26076995142937764
   3.60000000000000409   0.26184366107117379
   3.70000000000000240   0.26267873746410109
   3.80000000000000115   0.26327952511148695
   3.90000000000000480   0.26369589692507217
   4.00000000000000089   0.26401372168909859
   4.09999999999999876   0.26433433582036370
   4.20000000000000195   0.26474244093763277
   4.29999999999999805   0.26527328952051532
   4.40000000000000213   0.26589549060486639
   4.50000000000000000   0.26651870214511825
   4.59999999999999787   0.26702318206032749
   4.70000000000000195   0.26729888192941215
   4.79999999999999805   0.26727872680545067
   4.90000000000000124   0.26695342076001494
   4.99999999999999911   0.26636453136007010
   5.09999999999999520   0.26558589603330018
   5.19999999999999929   0.26470824691173006
   5.29999999999999805   0.26383354051298075
   5.39999999999999591   0.26307518149700099
   5.49999999999999911   0.26255634788484600
   5.59999999999999520   0.26239806634659291
   5.69999999999999218   0.26269223505149841
   5.79999999999999538   0.26346552472268425
   5.89999999999999414   0.26465039698720610
   5.99999999999999645   0.26607812094034361
   6.09999999999999432   0.26749894996369178
   6.19999999999999218   0.26862711143427759
   6.29999999999999361   0.26920333833486298
   6.39999999999999414   0.26906042497405919
   6.49999999999999645   0.26817035072086121
   6.59999999999999343   0.26665388501371307
   6.69999999999998952   0.26474666413950643
   6.79999999999999094   0.26273135677014098
   6.89999999999998881   0.26085766066630439
   6.99999999999999201   0.25927767020948533
   7.09999999999999343   0.25801993644779503
   7.19999999999998952   0.25700992700534347
   7.29999999999998561   0.25612303266145792
   7.39999999999998614   0.25524215024891961
   7.49999999999999112   0.25429504606558101
   7.59999999999999254   0.25326305426120843
   7.69999999999998863   0.25216894326012046
   7.79999999999998561   0.25105711544154879
   7.89999999999998614   0.24997417791770146
   7.99999999999999112   0.24895235573887065
   8.09999999999999254   0.24799862308805956
   8.19999999999998685   0.24709468970295886
   8.29999999999998472   0.24620905260471687
   8.39999999999998437   0.24531296402131048
   8.49999999999999112   0.24438951951639878
   8.59999999999998721   0.24343461528875895
   8.69999999999998685   0.24245674945915691
   8.79999999999998472   0.24147808216504671
   8.89999999999997904   0.24053043369688212
   8.99999999999998046   0.23964180259650883
   9.09999999999998721   0.23882095316547269
   9.19999999999998685   0.23805332172157193
   9.29999999999998295   0.23731297773097665
   9.39999999999997904   0.23658317748694116
   9.49999999999997868   0.23587234131409660
   9.59999999999998721   0.23521472279522410
   9.69999999999998685   0.23465528209230552
   9.79999999999998117   0.23422888551105969
   9.89999999999997904   0.23394438469632006
   9.99999999999997691   0.23377789356496034
  10.09999999999997300   0.23367559226590334
  10.19999999999998330   0.23356400652580447
  10.29999999999998117   0.23336375563913728
  10.39999999999997904   0.23300376793243563
  10.49999999999997513   0.23243535329962281
  10.59999999999997300   0.23164470725682568
  10.69999999999998153   0.23065862705828455
  10.79999999999997939   0.22953776468484682
  10.89999999999997726   0.22835900639382142
  10.99999999999997513   0.22719632914234267
  11.09999999999997300   0.22610691683245984
  11.19999999999998153   0.22512117942056620
  11.29999999999997762   0.22423560272819021
  11.39999999999997549   0.22341419741474156
  11.49999999999997513   0.22260330211852614
  11.59999999999997300   0.22175403212914552
  11.69999999999998153   0.22083993921416650
  11.79999999999997584   0.21986152869902179
  11.89999999999997549   0.21883798977444699
  11.99999999999997691   0.21779255073518489
  12.09999999999996767   0.21673964488880293
  12.19999999999997087   0.21568030289130913
  12.29999999999997229   0.21460769778240121
  12.39999999999997549   0.21351860406017892
  12.49999999999997691   0.21242235284422434
  12.59999999999996767   0.21134204491829139
  12.69999999999997087   0.21030995665992944
  12.79999999999997229   0.20935984960961315
  12.89999999999997549   0.20851464750386076
  12.99999999999996447   0.20776995783754176
  13.09999999999996767   0.20708212428816605
  13.19999999999997087   0.20637288956933145
  13.29999999999996163   0.20555467485123982
  13.39999999999997371   0.20456600825907303
  13.49999999999996447   0.20339922675310751
  13.59999999999996767   0.20210946926332823
  13.69999999999996909   0.20080550520219070
  13.79999999999995985   0.19962622937184232
  13.89999999999997371   0.19870528213399774
  13.99999999999996447   0.19813151417860142
  14.09999999999996589   0.19792113446407883
  14.19999999999996909   0.19801420457350749
  14.29999999999995985   0.19829459499654986
  14.39999999999997371   0.19862285060687948
  14.49999999999996092   0.19887110442441908
  14.59999999999996412   0.19895260687186569
  14.69999999999997087   0.19883992707357329
  14.79999999999995985   0.19856557722570981
  14.89999999999997371   0.19820263102822927
  14.99999999999995914   0.19783295920815183
  15.09999999999996412   0.19751789607434256
  15.19999999999997087   0.19728289576210570
  15.29999999999995630   0.19711853107278346
  15.39999999999996483   0.19699276708928001
  15.49999999999995737   0.19686661624039672
  15.59999999999996412   0.19670648541885227
  15.69999999999994955   0.19649021782804615
  15.79999999999995630   0.19620820205319553
  15.89999999999996483   0.19586241803960006
  15.99999999999995737   0.19546377807280343
  16.09999999999996234   0.19502683386407679
  16.19999999999994955   0.19456338617377800
  16.29999999999995808   0.19407896747405029
  16.39999999999997371   0.19357476052432107
  16.49999999999996092   0.19305260792992199
  16.59999999999996589   0.19251841601009831
  16.69999999999997442   0.19198320469348720
  16.79999999999995808   0.19146408666807471
  16.89999999999997371   0.19098407660778324
  16.99999999999998224   0.19056596705974560
  17.09999999999996945   0.19021826697749791
  17.19999999999998508   0.18991962840473903
  17.29999999999997229   0.18961460339751676
  17.39999999999997726   0.18922868847668420
  17.49999999999998579   0.18869574177643803
  17.59999999999996945   0.18798127888591593
  17.69999999999998508   0.18709071967331078
  17.79999999999997229   0.18606390218193472
  17.89999999999998082   0.18496371549022286
  17.99999999999999645   0.18386448075205322
  18.09999999999998366   0.18283965444252256
  18.19999999999998863   0.18194676456282941
  18.29999999999999716   0.18121280556544100
  18.39999999999998082   0.18062712849755744
  18.49999999999999645   0.18014443800156546
  18.60000000000000497   0.17969507164705600
  18.69999999999999218   0.17920008359160447
  18.80000000000000782   0.17858924900767811
  18.89999999999999147   0.17781806209421924
  19.00000000000000000   0.17688055040847597
  19.10000000000000853   0.17581680832458130
  19.19999999999999218   0.17471117035812936
  19.30000000000000782   0.17367460499275716
  19.39999999999999503   0.17281346906122275
  19.50000000000000355   0.17220012460620654
  19.60000000000001918   0.17186149393332498
  19.70000000000000284   0.17178586236446949
  19.80000000000001137   0.17193433480818349
  19.90000000000001990   0.17224722603237336
  20.00000000000000355   0.17264876179880612
  20.10000000000001918   0.17305693164598598
  20.20000000000003126   0.17339777439866610
  20.30000000000001492   0.17361779034597694
  20.40000000000003055   0.17369081312627890
  20.50000000000001421   0.17362142008000606
  20.60000000000002274   0.17344765954644467
  20.70000000000003126   0.17324031680346033
  20.80000000000001847   0.17309176639676782
  20.90000000000003055   0.17309217075437097
  21.00000000000001421   0.17330197514339374
  21.10000000000002629   0.17373450153404923
  21.20000000000004192   0.17435384012161081
  21.30000000000002913   0.17508279223081749
  21.40000000000003766   0.17581599833469605
  21.50000000000004263   0.17643840415125661
  21.60000000000002629   0.17684769777340506
  21.70000000000004192   0.17697435342439138
  21.80000000000005400   0.17679313429795118
  21.90000000000004121   0.17632486552477006
  22.00000000000004974   0.17563070530477062
  22.10000000000003695   0.17480015083915115
  22.20000000000004547   0.17393216077356055
  22.30000000000005400   0.17311118165547149
  22.40000000000004476   0.17238517157214123
  22.50000000000004974   0.17175547902422758
  22.60000000000003695   0.17118574778048720
  22.70000000000004903   0.17062759680574857
  22.80000000000006466   0.17004870468928521
  22.90000000000005187   0.16944581412704482
  23.00000000000005329   0.16883621752492858
  23.10000000000006537   0.16823602474721924
  23.20000000000004903   0.16763942885439559
  23.30000000000006466   0.16700942193509838
  23.40000000000007674   0.16628395631972126
  23.50000000000006750   0.16539658570740065
  23.60000000000006892   0.16430568546163019
  23.70000000000005969   0.16301980954748901
  23.80000000000006821   0.16160403049112196
  23.90000000000007674   0.16016201198853289
  24.00000000000006750   0.15880562073113047
  24.10000000000006892   0.15762920628053206
  24.20000000000005969   0.15669458213603921
  24.30000000000007176   0.15602259055625234
  24.40000000000008740   0.15558980077267223
  24.50000000000007816   0.15533547236951176
  24.60000000000009024   0.15518147005281988
  24.70000000000008100   0.15505718335985957
  24.80000000000007176   0.15491526136413444
  24.90000000000008740   0.15473144830269076
  25.00000000000009948   0.15449591530217707
  25.10000000000009024   0.15420834186331825
  25.20000000000008811   0.15388073318722018
  25.30000000000008242   0.15354110445189015
  25.40000000000009095   0.15322857874782708
  25.50000000000009948   0.15297850448696665
  25.60000000000009734   0.15280656824961544
  25.70000000000008811   0.15270201952273371
  25.80000000000008242   0.15263155417461138
  25.90000000000009450   0.15254847152081297
  26.00000000000011013   0.15240319357423482
  26.10000000000010090   0.15215571311671142
  26.20000000000009166   0.15179046873854601
  26.30000000000010374   0.15132829623430807
  26.40000000000009450   0.15082529328849195
  26.50000000000011013   0.15035380662652212
  26.60000000000012221   0.14997442484847126
  26.70000000000012008   0.14971525614613193
  26.80000000000011084   0.14956750468772442
  26.90000000000010161   0.14949483969253199
  27.00000000000011369   0.14945011125613081
  27.10000000000012932   0.14939310278870740
  27.20000000000012008   0.14930214350486723
  27.30000000000011084   0.14917516918298065
  27.40000000000010516   0.14902406685561032
  27.50000000000011724   0.14887083986975486
  27.60000000000013287   0.14874867647678985
  27.70000000000012719   0.14870147658376570
  27.80000000000013571   0.14877379091497797
  27.90000000000012292   0.14899248488908404
  28.00000000000011724   0.14935105485749184
  28.10000000000013287   0.14980722836827251
  28.20000000000014495   0.15029571230487407
  28.30000000000014282   0.15074894773479675
  28.40000000000013358   0.15111620005531429
  28.50000000000012434   0.15137543538086878
  28.60000000000013642   0.15153770341764644
  28.70000000000015206   0.15164428953265033
  28.80000000000014637   0.15175371029705434
  28.90000000000012648   0.15191752647155568
  29.00000000000012434   0.15215370631455405
  29.10000000000013998   0.15243268083703387
  29.20000000000015561   0.15268442700158169
  29.30000000000014992   0.15282112454114533
  29.40000000000013713   0.15276335018155471
  29.50000000000014566   0.15246235371343547
  29.60000000000013998   0.15191698612535803
  29.70000000000015561   0.15118273216108016
  29.80000000000017479   0.15036632494791671
  29.90000000000016911   0.14960224953234660
  30.00000000000014921   0.14901717692755712
  30.10000000000014708   0.14869476126595554
  30.20000000000015916   0.14865107726250554
  30.30000000000017479   0.14882699772373059
  30.40000000000016911   0.14910209109208536
  30.50000000000014921   0.14932901352106476
  30.60000000000014708   0.14937684017586278
  30.70000000000016271   0.14916633965848056
  30.80000000000017835   0.14868525763012072
  30.90000000000017977   0.14798279435008710
  31.00000000000019185   0.14715220827736505
  31.10000000000016485   0.14631108352514477
  31.20000000000016271   0.14558053041941060
  31.30000000000017835   0.14506005012229872
  31.40000000000019753   0.14480136995250276
  31.50000000000019185   0.14479292075125139
  31.60000000000017195   0.14496459919130275
  31.70000000000016982   0.14521102069738978
  31.80000000000018190   0.14542238354524628
  31.90000000000019753   0.14551258637786557
  32.00000000000019895   0.14543920029422264
  32.10000000000017195   0.14521184757958541
  32.20000000000016627   0.14488535829521987
  32.30000000000018900   0.14453694567295605
  32.40000000000019753   0.14423370000523444
  32.50000000000019895   0.14400337785567019
  32.60000000000017195   0.14382209142511765
  32.70000000000018758   0.14362564350280874
  32.80000000000018900   0.14334025327145963
  32.90000000000019753   0.14291769195308410
  33.00000000000022027   0.14235669299652717
  33.10000000000022169   0.14170197922867617
  33.20000000000019469   0.14102576620475951
  33.30000000000018900   0.14040233735717542
  33.40000000000020464   0.13988530427777754
  33.50000000000022027   0.13949431128583062
  33.60000000000022169   0.13921316817976173
  33.70000000000019469   0.13899741005385727
  33.80000000000018900   0.13878827394676552
  33.90000000000021174   0.13852846261849783
  34.00000000000022027   0.13817430170579220
  34.10000000000022169   0.13770338009617633
  34.20000000000023732   0.13712117691254211
  34.30000000000021032   0.13646666547383923
  34.40000000000021174   0.13580893661288262
  34.50000000000022027   0.13522689460812867
  34.60000000000024301   0.13477730276908992
  34.70000000000024443   0.13447014235520069
  34.80000000000021743   0.13426855682187383
  34.90000000000021174   0.13411450094656557
  35.00000000000022737   0.13396424838937390
  35.10000000000024301   0.13381267769761132
  35.20000000000024443   0.13369494162672821
  35.30000000000021743   0.13366913967765282
  35.40000000000021174   0.13379188919408844
  35.50000000000023448   0.13409805651183748
  35.60000000000024301   0.13459099303496944
  35.70000000000024443   0.13524375153305809
  35.80000000000021743   0.13600720625891530
  35.90000000000023306   0.13682003421894953
  36.00000000000023448   0.13761745812787840
  36.10000000000024301   0.13833672895701649
  36.20000000000026574   0.13891770237280274
  36.30000000000026716   0.13930070984674087
  36.40000000000024016   0.13942824158526329
  36.50000000000023448   0.13925438374820415
  36.60000000000025011   0.13875789728457857
  36.70000000000026574   0.13794972861290775
  36.80000000000026716   0.13687031431940877
  36.90000000000023306   0.13558353603344045
  37.00000000000023448   0.13417698434323358
  37.10000000000025722   0.13276463597094371
  37.20000000000026574   0.13147655712417092
  37.30000000000027427   0.13042959181047734
  37.40000000000028280   0.12969291505885516
  37.50000000000024869   0.12926907637918858
  37.60000000000025722   0.12909938968190543
  37.70000000000026574   0.12908720977175900
  37.80000000000028848   0.12912752014793524
  37.90000000000028990   0.12913492959386305
  38.00000000000025580   0.12906486201265210
  38.10000000000025722   0.12892196628990207
  38.20000000000027285   0.12875150165105537
  38.30000000000028848   0.12861677734317578
  38.40000000000028990   0.12857337181203984
  38.50000000000025580   0.12865138368122822
  38.60000000000025722   0.12884942100633814
  38.70000000000027995   0.12913591606664251
  38.80000000000028848   0.12945317088134939
  38.90000000000029701   0.12972527881661955
  39.00000000000026290   0.12987323143654009
  39.10000000000027143   0.12983573035658710
  39.20000000000027995   0.12958858770548035
  39.30000000000028848   0.12915594943517172
  39.40000000000031122   0.12861141799307696
  39.50000000000031264   0.12806810418342332
  39.60000000000027853   0.12765324537530448
  39.70000000000027995   0.12746688441636189
  39.80000000000029559   0.12753930684309009
  39.90000000000031122   0.12781344578887038
  40.00000000000031264   0.12816889887295996
  40.10000000000027853   0.12847661502156196
  40.20000000000027995   0.12865195423789250
  40.30000000000030269   0.12867819759887836
  40.40000000000031122   0.12859526592484125
  40.50000000000031974   0.12846816400075173
  40.60000000000033538   0.12835512944379629
  40.70000000000029416   0.12828888620854206
  40.80000000000030269   0.12827423680383687
  40.90000000000031122   0.12829748539465671
  41.00000000000032685   0.12833835952902836
  41.10000000000033538   0.12837535009184553
  41.20000000000030127   0.12838252562652755
  41.30000000000030980   0.12832335451992938
  41.40000000000031832   0.12814824064140853
  41.50000000000032685   0.12779915276404508
  41.60000000000033538   0.12722108808425409
  41.70000000000030127   0.12637768611300329
  41.80000000000030980   0.12526696470029661
  41.90000000000032543   0.12393249547724222
  42.00000000000033396   0.12246514884222715
  42.10000000000033538   0.12099191552081988
  42.20000000000030127   0.11965300649912713
  42.30000000000031690   0.11857516048473782
  42.40000000000032543   0.11785118519329590
  42.50000000000033396   0.11752938879051207
  42.60000000000035669   0.11760836542530702
