# Spinless fermions Hamiltonian with random disorder and nearest neighbour interactions
# L=36x1 (size), J=0.5 (hoping amplitude), V=0.5 (interaction), W/J=6 (disorder strength), N=75 (disorder realizations), T=25 (number of trajectories)
# Evolution of Imbalance in time (fTWA method)
# time t, Imbalance I

   0.00000000000000000   1.00000000000000000
   0.10000000000000003   0.99074047499803575
   0.20000000000000007   0.96284741285525022
   0.29999999999999988   0.91862225779171769
   0.40000000000000013   0.86163256858846238
   0.50000000000000000   0.79620991550297970
   0.59999999999999976   0.72685843899868419
   0.69999999999999973   0.65767717604274978
   0.80000000000000027   0.59190685506161889
   0.89999999999999969   0.53168751696940542
   0.99999999999999989   0.47805437089873276
   1.10000000000000053   0.43113191560795722
   1.19999999999999951   0.39044175801222564
   1.30000000000000027   0.35523121907228228
   1.39999999999999947   0.32474903573663361
   1.50000000000000022   0.29842256881644458
   1.60000000000000098   0.27592003002890120
   1.70000000000000084   0.25711213149353396
   1.79999999999999938   0.24197276317105035
   1.90000000000000036   0.23046655635166061
   2.00000000000000044   0.22246355651883415
   2.10000000000000098   0.21770525154523729
   2.20000000000000107   0.21582610931900476
   2.29999999999999938   0.21641478333463829
   2.39999999999999991   0.21908662620556787
   2.50000000000000044   0.22353790525322489
   2.60000000000000098   0.22956174940279109
   2.70000000000000240   0.23702415618199349
   2.80000000000000249   0.24581748381055288
   2.90000000000000080   0.25581595157796833
   3.00000000000000044   0.26684914044573771
   3.10000000000000009   0.27869709991080838
   3.20000000000000240   0.29110545473517646
   3.30000000000000160   0.30381636050629562
   3.40000000000000169   0.31660413281218613
   3.50000000000000044   0.32929805892229652
   3.60000000000000409   0.34177853297981714
   3.70000000000000240   0.35394826541191954
   3.80000000000000115   0.36569768328124141
   3.90000000000000480   0.37688636133045472
   4.00000000000000089   0.38734873323776742
   4.09999999999999876   0.39691845618911697
   4.20000000000000195   0.40546137345013306
   4.29999999999999805   0.41290741850112933
   4.40000000000000213   0.41927260338682060
   4.50000000000000000   0.42466400346820438
   4.59999999999999787   0.42926413758817178
   4.70000000000000195   0.43329762125960913
   4.79999999999999805   0.43699017977517657
   4.90000000000000124   0.44053088030649606
   4.99999999999999911   0.44404441444107323
   5.09999999999999520   0.44757850573821428
   5.19999999999999929   0.45110875877131018
   5.29999999999999805   0.45455574997409814
   5.39999999999999591   0.45780534804856177
   5.49999999999999911   0.46072766499801721
   5.59999999999999520   0.46319503673954038
   5.69999999999999218   0.46509907954328944
   5.79999999999999538   0.46636230708745047
   5.89999999999999414   0.46693791972569604
   5.99999999999999645   0.46679852036705549
   6.09999999999999432   0.46592464815871165
   6.19999999999999218   0.46430335019749225
   6.29999999999999361   0.46193564592337633
   6.39999999999999414   0.45884481805140176
   6.49999999999999645   0.45508019599622762
   6.59999999999999343   0.45071423549341794
   6.69999999999998952   0.44583227116409196
   6.79999999999999094   0.44051885173863298
   6.89999999999998881   0.43484798807220398
   6.99999999999999201   0.42888239768553726
   7.09999999999999343   0.42268259737534930
   7.19999999999998952   0.41632250553059735
   7.29999999999998561   0.40990264233477058
   7.39999999999998614   0.40355107316086802
   7.49999999999999112   0.39740998365587693
   7.59999999999999254   0.39161401834157356
   7.69999999999998863   0.38626819644838467
   7.79999999999998561   0.38143156246208820
   7.89999999999998614   0.37711161646958086
   7.99999999999999112   0.37327260602905432
   8.09999999999999254   0.36985539597342426
   8.19999999999998685   0.36680019571742045
   8.29999999999998472   0.36406205007540415
   8.39999999999998437   0.36161517049847064
   8.49999999999999112   0.35944984098139299
   8.59999999999998721   0.35756737862024074
   8.69999999999998685   0.35597568468167784
   8.79999999999998472   0.35468564399693897
   8.89999999999997904   0.35370837893587281
   8.99999999999998046   0.35305340736421875
   9.09999999999998721   0.35272806919326083
   9.19999999999998685   0.35273921682128323
   9.29999999999998295   0.35309659297656881
   9.39999999999997904   0.35381417393053177
   9.49999999999997868   0.35490568525444510
   9.59999999999998721   0.35637383641375625
   9.69999999999998685   0.35819666214623075
   9.79999999999998117   0.36031742772751274
   9.89999999999997904   0.36264514104246065
   9.99999999999997691   0.36506821012588753
  10.09999999999997300   0.36747647679176415
  10.19999999999998330   0.36978236938787057
  10.29999999999998117   0.37193339535322278
  10.39999999999997904   0.37391345239164081
  10.49999999999997513   0.37573538885492336
  10.59999999999997300   0.37743009732949118
  10.69999999999998153   0.37903703274957451
  10.79999999999997939   0.38059693830633234
  10.89999999999997726   0.38214369942480003
  10.99999999999997513   0.38369401089613009
  11.09999999999997300   0.38523877758159897
  11.19999999999998153   0.38674095615411130
  11.29999999999997762   0.38814122617826818
  11.39999999999997549   0.38937135796372868
  11.49999999999997513   0.39037328116554509
  11.59999999999997300   0.39111696271023083
  11.69999999999998153   0.39160809407155051
  11.79999999999997584   0.39188158768421666
  11.89999999999997549   0.39198465793530946
  11.99999999999997691   0.39195777020156802
  12.09999999999996767   0.39182076202139809
  12.19999999999997087   0.39156659605698074
  12.29999999999997229   0.39116166665140017
  12.39999999999997549   0.39055346256030993
  12.49999999999997691   0.38968864429480660
  12.59999999999996767   0.38853921432947058
  12.69999999999997087   0.38712429294972173
  12.79999999999997229   0.38551254737639917
  12.89999999999997549   0.38380077265276474
  12.99999999999996447   0.38207829931237580
  13.09999999999996767   0.38039432779010518
  13.19999999999997087   0.37874302355344225
  13.29999999999996163   0.37707212109359806
  13.39999999999997371   0.37531039070624672
  13.49999999999996447   0.37340245649123682
  13.59999999999996767   0.37133859709173062
  13.69999999999996909   0.36917049594050655
  13.79999999999995985   0.36700750210789379
  13.89999999999997371   0.36499301288923697
  13.99999999999996447   0.36326895285853011
  14.09999999999996589   0.36194202752222165
  14.19999999999996909   0.36106281578896532
  14.29999999999995985   0.36062091335072183
  14.39999999999997371   0.36055334245052745
  14.49999999999996092   0.36076175638628061
  14.59999999999996412   0.36113441844550453
  14.69999999999997087   0.36156931539043957
  14.79999999999995985   0.36199376858786692
  14.89999999999997371   0.36237408342110794
  14.99999999999995914   0.36271063450188978
  15.09999999999996412   0.36302149612409434
  15.19999999999997087   0.36332486324318669
  15.29999999999995630   0.36363010181932942
  15.39999999999996483   0.36393916817303484
  15.49999999999995737   0.36425056223298458
  15.59999999999996412   0.36455657468201907
  15.69999999999994955   0.36483439758264319
  15.79999999999995630   0.36504135210780025
  15.89999999999996483   0.36512111543565773
  15.99999999999995737   0.36501639415975945
  16.09999999999996234   0.36467993046654540
  16.19999999999994955   0.36408356817368426
  16.29999999999995808   0.36323079449451595
  16.39999999999997371   0.36217164228790177
  16.49999999999996092   0.36100850103326526
  16.59999999999996589   0.35988240665008175
  16.69999999999997442   0.35894263000534321
  16.79999999999995808   0.35831334481128779
  16.89999999999997371   0.35806977889210556
  16.99999999999998224   0.35822704687904744
  17.09999999999996945   0.35873941427279799
  17.19999999999998508   0.35950995687441772
  17.29999999999997229   0.36041182624417606
  17.39999999999997726   0.36131619406406290
  17.49999999999998579   0.36211654948948485
  17.59999999999996945   0.36274293023758586
  17.69999999999998508   0.36316697786169932
  17.79999999999997229   0.36340046978232943
  17.89999999999998082   0.36348843363282607
  17.99999999999999645   0.36349833201223303
  18.09999999999998366   0.36350801199189881
  18.19999999999998863   0.36359392074738595
  18.29999999999999716   0.36381823320312889
  18.39999999999998082   0.36421329319061646
  18.49999999999999645   0.36476668979907845
  18.60000000000000497   0.36541603005938605
  18.69999999999999218   0.36606089871439396
  18.80000000000000782   0.36658932541064310
  18.89999999999999147   0.36690549237489162
  19.00000000000000000   0.36694496488170314
  19.10000000000000853   0.36667554958337634
  19.19999999999999218   0.36609378024879513
  19.30000000000000782   0.36522598600340039
  19.39999999999999503   0.36413231592648704
  19.50000000000000355   0.36290603501945851
  19.60000000000001918   0.36166390576983182
  19.70000000000000284   0.36052976683774157
  19.80000000000001137   0.35961634253910657
  19.90000000000001990   0.35900929669379417
  20.00000000000000355   0.35875486257346606
  20.10000000000001918   0.35885070395700408
  20.20000000000003126   0.35924059083883714
  20.30000000000001492   0.35981574316270704
  20.40000000000003055   0.36042675026530452
  20.50000000000001421   0.36090842723679917
  20.60000000000002274   0.36111542621006304
  20.70000000000003126   0.36095997717861600
  20.80000000000001847   0.36043802046177831
  20.90000000000003055   0.35963091838428030
  21.00000000000001421   0.35867975680765801
  21.10000000000002629   0.35774275698158153
  21.20000000000004192   0.35695292521554417
  21.30000000000002913   0.35638871804119793
  21.40000000000003766   0.35606173174554501
  21.50000000000004263   0.35592070158331296
  21.60000000000002629   0.35587046828249180
  21.70000000000004192   0.35580261143428971
  21.80000000000005400   0.35562975743260566
  21.90000000000004121   0.35531137740330337
  22.00000000000004974   0.35485996628988353
  22.10000000000003695   0.35432641017731042
  22.20000000000004547   0.35377601864483194
  22.30000000000005400   0.35326878996053668
  22.40000000000004476   0.35284782586368918
  22.50000000000004974   0.35253268705681201
  22.60000000000003695   0.35231763371782232
  22.70000000000004903   0.35217905669107491
  22.80000000000006466   0.35209180867254591
  22.90000000000005187   0.35204570467297008
  23.00000000000005329   0.35205291297852143
  23.10000000000006537   0.35214373795673154
  23.20000000000004903   0.35235271450570593
  23.30000000000006466   0.35269738440613185
  23.40000000000007674   0.35315613637544790
  23.50000000000006750   0.35365835785719485
  23.60000000000006892   0.35409822488476012
  23.70000000000005969   0.35436939694765468
  23.80000000000006821   0.35440352466399022
  23.90000000000007674   0.35419300802336895
  24.00000000000006750   0.35378954197980417
  24.10000000000006892   0.35328524572240905
  24.20000000000005969   0.35278904613185047
  24.30000000000007176   0.35240366203917589
  24.40000000000008740   0.35220168861319506
  24.50000000000007816   0.35220548496791382
  24.60000000000009024   0.35238401267464026
  24.70000000000008100   0.35267266744654457
  24.80000000000007176   0.35300477495438787
  24.90000000000008740   0.35333536467335802
  25.00000000000009948   0.35364602639548165
  25.10000000000009024   0.35393466531304540
  25.20000000000008811   0.35420189567012783
  25.30000000000008242   0.35444127578441820
  25.40000000000009095   0.35463294429773912
  25.50000000000009948   0.35474045318391728
  25.60000000000009734   0.35471437159077512
  25.70000000000008811   0.35450373315331446
  25.80000000000008242   0.35407073178754639
  25.90000000000009450   0.35340323531261270
  26.00000000000011013   0.35252207081736342
  26.10000000000010090   0.35148050246717411
  26.20000000000009166   0.35035436626720312
  26.30000000000010374   0.34922656779543249
  26.40000000000009450   0.34817492228585312
  26.50000000000011013   0.34726965986449815
  26.60000000000012221   0.34657667857098728
  26.70000000000012008   0.34615566790790853
  26.80000000000011084   0.34604684125029439
  26.90000000000010161   0.34625145868354529
  27.00000000000011369   0.34671868202713019
  27.10000000000012932   0.34734860032241444
  27.20000000000012008   0.34801233598503262
  27.30000000000011084   0.34858257442030949
  27.40000000000010516   0.34896459751732695
  27.50000000000011724   0.34911754825111729
  27.60000000000013287   0.34905782874320562
  27.70000000000012719   0.34884349087381150
  27.80000000000013571   0.34854848235383901
  27.90000000000012292   0.34824009753870389
  28.00000000000011724   0.34796774907224343
  28.10000000000013287   0.34776269354724154
  28.20000000000014495   0.34764362184459513
  28.30000000000014282   0.34762217020229891
  28.40000000000013358   0.34770405458072606
  28.50000000000012434   0.34788578131181580
  28.60000000000013642   0.34815062184986989
  28.70000000000015206   0.34846751668212644
  28.80000000000014637   0.34879437116702194
  28.90000000000012648   0.34908456335901694
  29.00000000000012434   0.34929303178231097
  29.10000000000013998   0.34937913942924564
  29.20000000000015561   0.34930874966861791
  29.30000000000014992   0.34905981282571102
  29.40000000000013713   0.34863015888455257
  29.50000000000014566   0.34804250896654615
  29.60000000000013998   0.34734462142876588
  29.70000000000015561   0.34660457677538881
  29.80000000000017479   0.34590019221014345
  29.90000000000016911   0.34530180605765731
  30.00000000000014921   0.34485127414972666
  30.10000000000014708   0.34454639086572192
  30.20000000000015916   0.34434275220872745
  30.30000000000017479   0.34417605921395217
  30.40000000000016911   0.34399175765621420
  30.50000000000014921   0.34376316550877789
  30.60000000000014708   0.34349199163976468
  30.70000000000016271   0.34320197614672032
  30.80000000000017835   0.34293731960930934
  30.90000000000017977   0.34276341562663132
  31.00000000000019185   0.34275797405543579
  31.10000000000016485   0.34298716333591239
  31.20000000000016271   0.34347519536298859
  31.30000000000017835   0.34418294247261910
  31.40000000000019753   0.34500739791088730
  31.50000000000019185   0.34580276078773808
  31.60000000000017195   0.34641310848649681
  31.70000000000016982   0.34670405907022900
  31.80000000000018190   0.34658695176424731
  31.90000000000019753   0.34603448038526147
  32.00000000000019895   0.34508587561265197
  32.10000000000017195   0.34383814529357221
  32.20000000000016627   0.34242231280610747
  32.30000000000018900   0.34096937733824345
  32.40000000000019753   0.33957820791382343
  32.50000000000019895   0.33830101285501596
  32.60000000000017195   0.33715374435656315
  32.70000000000018758   0.33614300152981952
  32.80000000000018900   0.33529160974675559
  32.90000000000019753   0.33464804475386078
  33.00000000000022027   0.33427478969335633
  33.10000000000022169   0.33422176762499317
  33.20000000000019469   0.33449903930662145
  33.30000000000018900   0.33506409642393969
  33.40000000000020464   0.33583197982226837
  33.50000000000022027   0.33670378191270728
  33.60000000000022169   0.33759786874184933
  33.70000000000019469   0.33846670370263837
  33.80000000000018900   0.33929263575633023
  33.90000000000021174   0.34007080899822045
  34.00000000000022027   0.34079382007257680
  34.10000000000022169   0.34144603833980958
  34.20000000000023732   0.34200433795878848
  34.30000000000021032   0.34243811653638051
  34.40000000000021174   0.34270738372018550
  34.50000000000022027   0.34276576411865023
  34.60000000000024301   0.34257472919905058
  34.70000000000024443   0.34212460384749172
  34.80000000000021743   0.34144868786922750
  34.90000000000021174   0.34061972727985712
  35.00000000000022737   0.33972877691636988
  35.10000000000024301   0.33885621179923042
  35.20000000000024443   0.33804977453580431
  35.30000000000021743   0.33732133061090697
  35.40000000000021174   0.33666149212206842
  35.50000000000023448   0.33605970272756430
  35.60000000000024301   0.33551675469428216
  35.70000000000024443   0.33504501898628780
  35.80000000000021743   0.33466051505508609
  35.90000000000023306   0.33437385742988546
  36.00000000000023448   0.33418353104053355
  36.10000000000024301   0.33407082819893208
  36.20000000000026574   0.33399706839311094
  36.30000000000026716   0.33390794646795080
  36.40000000000024016   0.33374934765206415
  36.50000000000023448   0.33349178017408948
  36.60000000000025011   0.33315272243215233
  36.70000000000026574   0.33280349720040658
  36.80000000000026716   0.33255280709566376
  36.90000000000023306   0.33251153738840905
  37.00000000000023448   0.33275445854321173
  37.10000000000025722   0.33329531591969441
  37.20000000000026574   0.33408311945328717
  37.30000000000027427   0.33501680683955198
  37.40000000000028280   0.33596882252736399
  37.50000000000024869   0.33680835625956079
  37.60000000000025722   0.33742051700057357
  37.70000000000026574   0.33772260133479254
  37.80000000000028848   0.33767793389236173
  37.90000000000028990   0.33730262199707040
  38.00000000000025580   0.33665841352685932
  38.10000000000025722   0.33583230931445535
  38.20000000000027285   0.33491535992530302
  38.30000000000028848   0.33399539209285056
  38.40000000000028990   0.33316484895595927
  38.50000000000025580   0.33252752346302289
  38.60000000000025722   0.33218600318898128
  38.70000000000027995   0.33220880301617256
  38.80000000000028848   0.33259594830066230
  38.90000000000029701   0.33326639158940208
  39.00000000000026290   0.33407737494434486
  39.10000000000027143   0.33486560555397754
  39.20000000000027995   0.33548904815310948
  39.30000000000028848   0.33585407803962281
  39.40000000000031122   0.33592583360379030
  39.50000000000031264   0.33572553230865998
  39.60000000000027853   0.33531707750073286
  39.70000000000027995   0.33478565428716001
  39.80000000000029559   0.33421453560176728
  39.90000000000031122   0.33366671037677631
  40.00000000000031264   0.33317484750582788
  40.10000000000027853   0.33274044131449954
  40.20000000000027995   0.33234136244782114
  40.30000000000030269   0.33194619922084773
  40.40000000000031122   0.33153178094977998
  40.50000000000031974   0.33109569566683283
  40.60000000000033538   0.33065532806019782
  40.70000000000029416   0.33023471621247857
  40.80000000000030269   0.32985116959834326
  40.90000000000031122   0.32951221532561609
  41.00000000000032685   0.32922195959099465
  41.10000000000033538   0.32898791222662849
  41.20000000000030127   0.32882271655870443
  41.30000000000030980   0.32874306554945532
  41.40000000000031832   0.32876876537110850
  41.50000000000032685   0.32891945216372082
  41.60000000000033538   0.32920616819108878
  41.70000000000030127   0.32962249758800105
  41.80000000000030980   0.33014350477047816
  41.90000000000032543   0.33073272204959098
  42.00000000000033396   0.33134853159518568
  42.10000000000033538   0.33194533692594175
  42.20000000000030127   0.33247537426979434
  42.30000000000031690   0.33289712909857289
  42.40000000000032543   0.33318697923783430
  42.50000000000033396   0.33334523950599276
  42.60000000000035669   0.33339155672588677
