# XXZ chain with true anisotropy being Delta + g
# L = 16, full Hilbert space, J = 1, Delta = 1.0, g = 0.05
# Normalized cumlative spectral function for the O1 operator, with frequency scaled by g
# omega/g, R_1(omega)

2.046743597265039405e+00 9.949748494210871597e-01
1.969432191586754755e+00 9.948439710913777878e-01
1.895041060561309498e+00 9.947032471569383638e-01
1.823459896996984408e+00 9.945742975257729768e-01
1.754582560322673013e+00 9.944392447730687756e-01
1.688306919202596790e+00 9.943151626959397804e-01
1.624534700095943807e+00 9.941811665401195652e-01
1.563171341536818248e+00 9.940769252518205645e-01
1.504125853918482969e+00 9.939703617503243827e-01
1.447310684573931416e+00 9.939006085036128368e-01
1.392641587952776483e+00 9.938409630805598027e-01
1.340037500701918072e+00 9.937744950173977854e-01
1.289420421464773758e+00 9.937128256202943932e-01
1.240715295220854886e+00 9.936735615430429824e-01
1.193849901994146867e+00 9.936308399921760515e-01
1.148754749765317440e+00 9.935573222288396344e-01
1.105362971428920593e+00 9.935008971773924280e-01
1.063610225642840357e+00 9.933844275770131738e-01
1.023434601422920975e+00 9.932183786423304239e-01
9.847765263413482684e-01 9.923016864453140240e-01
9.475786781926287539e-01 9.907668726779046420e-01
9.117858999962127342e-01 9.887584576255752378e-01
8.773451182096997369e-01 9.865402691207719732e-01
8.442052640313805201e-01 9.837170567983472003e-01
8.123171976753958967e-01 9.805816072428146235e-01
7.816336355072536213e-01 9.759789717329967473e-01
7.521090799316344500e-01 9.718456145336643592e-01
7.236997519285500724e-01 9.664829009342403854e-01
6.963635261377932872e-01 9.607828072480818493e-01
6.700598683954466228e-01 9.544468458616092166e-01
6.447497756298060656e-01 9.478676676800987799e-01
6.203957180276193917e-01 9.395773826396699446e-01
5.969615833848654907e-01 9.308408650439680132e-01
5.744126235595656826e-01 9.228169277449973507e-01
5.527154029472319818e-01 9.124993537376188124e-01
5.318377489025387650e-01 9.023208207953058446e-01
5.117487040337178605e-01 8.920658875045819336e-01
4.924184802989251541e-01 8.795121685876090556e-01
4.738184148365269244e-01 8.678785477270765103e-01
4.559209274637959775e-01 8.557245340931401989e-01
4.386994797810120361e-01 8.443185201469773915e-01
4.221285358203109017e-01 8.317855517085889216e-01
4.061835241809473862e-01 8.215867148090731931e-01
3.908408015948106606e-01 8.097856854372682545e-01
3.760776178681833337e-01 7.976751883992447834e-01
3.618720821477432459e-01 7.856887137480880190e-01
3.482031304608034228e-01 7.732215795882658727e-01
3.350504944816430908e-01 7.612284545928500457e-01
3.223946714776317335e-01 7.487364560325638907e-01
3.102168953905681259e-01 7.373321798483726264e-01
2.984991090103660816e-01 7.234672258714036630e-01
2.872239371998157598e-01 7.110995897462386583e-01
2.763746611307263956e-01 6.975192118362231186e-01
2.659351934932424610e-01 6.835792809239622514e-01
2.558900546415746602e-01 6.702344308375931536e-01
2.462243496407781618e-01 6.570556724342339061e-01
2.369237461805367151e-01 6.461829191057175681e-01
2.279744533232104797e-01 6.314633525816327753e-01
2.193632010546275879e-01 6.190644944729508659e-01
2.110772206073047996e-01 6.059228363729640687e-01
2.031042255269136232e-01 5.928928024491815219e-01
1.954323934539236307e-01 5.814971716003876079e-01
1.880503485934026386e-01 5.698919136638601612e-01
1.809471448469860411e-01 5.573205676659612751e-01
1.741122495819973082e-01 5.461679846900382440e-01
1.675355280136584801e-01 5.334784026181110805e-01
1.612072281772268800e-01 5.231729182314712734e-01
1.551179664677801717e-01 5.122142498723371018e-01
1.492587137262027519e-01 5.018059404349581865e-01
1.436207818507471146e-01 4.911933189373743902e-01
1.381958109143129054e-01 4.795841939825842837e-01
1.329757567683453878e-01 4.681341809097537832e-01
1.279528791149686096e-01 4.589808976896794790e-01
1.231197300296702768e-01 4.486438750556758781e-01
1.184691429175161181e-01 4.374845664996181993e-01
1.139942218865215018e-01 4.289265307952159767e-01
1.096883315224203986e-01 4.177829510456466111e-01
1.055450870496707494e-01 4.075574132103936265e-01
1.015583448641080577e-01 3.985060935329833853e-01
9.772219342320652424e-02 3.879867504146798929e-01
9.403094448044267695e-02 3.780605467281215049e-01
9.047912465076106414e-02 3.670641908146546895e-01
8.706146729463783152e-02 3.547257489492565141e-01
8.377290470870542294e-02 3.415565010641867794e-01
8.060856061136109640e-02 3.300103873938428078e-01
7.756374291221446171e-02 3.174580622320579137e-01
7.463393675465511412e-02 3.046274272161857977e-01
7.181479782122110467e-02 2.920362464997453000e-01
6.910214589184442147e-02 2.803852693748921099e-01
6.649195864541883327e-02 2.677344425619584967e-01
6.398036569550133446e-02 2.551348771039850805e-01
6.156364285130159347e-02 2.448965708102615879e-01
5.923820659545112055e-02 2.333168368524189129e-01
5.700060877036217111e-02 2.228587190649558014e-01
5.484753146529904727e-02 2.100121805625987936e-01
5.277578209657868974e-02 1.991569967764036941e-01
5.078228867360693594e-02 1.879163700706457940e-01
4.886409524372977570e-02 1.773690938566427899e-01
4.701835750914572926e-02 1.687650670820118048e-01
4.524233860938053214e-02 1.604601260129623896e-01
4.353340506306917906e-02 1.515883622715950008e-01
4.188902286302941674e-02 1.446125286781367869e-01
4.030675371883465918e-02 1.375837455814420962e-01
3.878425144131661395e-02 1.308028693721390023e-01
3.731925846363492311e-02 1.247267994572690969e-01
3.590960249375664548e-02 1.191092696435643028e-01
3.455319329338072537e-02 1.134613965183521034e-01
3.324801957853227435e-02 1.083411042672789010e-01
3.199214603722975309e-02 1.029936938144083020e-01
3.078371045980414153e-02 9.861714967904880447e-02
2.962092097761350948e-02 9.545147876646059570e-02
2.850205340605998366e-02 9.115595471051740617e-02
2.742544868796801399e-02 8.689049948232019371e-02
2.638951043353414405e-02 8.305155019980239861e-02
2.539270255319947892e-02 7.889240931057120432e-02
2.443354697993586205e-02 7.522162300210799568e-02
2.351062147756739773e-02 7.173817780011319811e-02
2.262255753187842819e-02 6.791953099679970407e-02
2.176803832138013081e-02 6.594207371273240470e-02
2.094579676472716964e-02 6.357848527957769835e-02
2.015461364188923452e-02 6.016235048744639907e-02
1.939331578629104047e-02 5.783246177083520290e-02
1.866077434524071599e-02 5.499705754761979870e-02
1.795590310606666462e-02 5.259329793977850220e-02
1.727765688548090622e-02 5.068851841273160075e-02
1.662502997978126257e-02 4.798561671523530331e-02
1.599705467359341382e-02 4.569335296922889811e-02
1.539279980494233022e-02 4.417133601364470197e-02
1.481136938452488373e-02 4.299219918318399752e-02
1.425190126713681872e-02 4.180256816323429936e-02
1.371356587328347552e-02 4.038337477511749762e-02
1.319556495907909383e-02 3.878611174241779896e-02
1.269713043261044665e-02 3.662644077836320344e-02
1.221752321501008015e-02 3.478731186718880125e-02
1.175603214454982309e-02 3.397840206995299955e-02
1.131197292213002685e-02 3.306635898815189767e-02
1.088468709660054407e-02 3.207529069559320045e-02
1.047354108840931053e-02 3.066288181646159919e-02
1.007792525013029988e-02 2.980075725248320165e-02
9.697252962478156157e-03 2.841454146410439877e-02
9.330959764468953199e-03 2.736218182267570118e-02
8.978502516437213490e-03 2.607626837893440089e-02
8.639358594668347310e-03 2.467506520513940149e-02
8.313025116451976462e-03 2.415529843373710045e-02
7.999018194407339286e-03 2.289639836563300140e-02
7.696872218974865586e-03 2.224400955493570017e-02
7.406139168010281854e-03 2.177338360022810018e-02
7.126387942457167515e-03 2.079899713548720094e-02
6.857203727113180512e-03 2.040236096019100095e-02
6.598187375541884198e-03 1.942210499758790024e-02
6.348954818218386677e-03 1.852724221714049935e-02
6.109136493030862917e-03 1.797911515818670022e-02
5.878376797293779869e-03 1.750742602579770033e-02
5.656333560460070214e-03 1.671446984369940117e-02
5.442677536750616975e-03 1.564976858123229980e-02
5.237091916948465216e-03 1.520811089851429980e-02
5.039271858634037683e-03 1.478243942938460044e-02
4.848924034164661667e-03 1.430835418559680064e-02
4.665766195728316378e-03 1.386565018022540077e-02
4.489526756826447626e-03 1.333127069247480069e-02
4.319944389565433772e-03 1.293574543525640060e-02
4.156767637159518303e-03 1.231123372240400075e-02
3.999754541070574092e-03 1.186968021632779993e-02
3.848672282231960489e-03 1.127725222938399940e-02
3.703296835824308221e-03 1.076025923968939972e-02
3.563412639091465255e-03 1.047121161749449934e-02
3.428812271703944332e-03 1.027286370474160028e-02
3.299296148196041115e-03 9.717433737578700520e-03
3.174672222020417153e-03 9.080082416811800089e-03
3.054755700781430858e-03 8.653010614757900010e-03
2.939368772224894635e-03 8.350018757843699971e-03
2.828340340578047903e-03 8.076215161520900257e-03
2.721505772848666072e-03 7.847225779386899844e-03
2.618706654707224357e-03 7.847225600903099188e-03
2.519790555590056651e-03 7.633400399866300048e-03
2.424610802675305782e-03 7.161885745250599726e-03
2.333026263396392134e-03 6.963837138237999672e-03
2.244901136170616117e-03 6.704240567603899845e-03
2.160104749032507824e-03 6.460133387838899732e-03
2.078511365873426074e-03 6.277801207957300206e-03
2.000000000000000042e-03 5.865041471129499653e-03
2.000000000000000096e-04 1.036701717094699925e-03
2.000000000000000164e-05 2.735783065474000015e-04
1.999999999999999909e-06 4.620212249481836156e-05
