# XXZ chain with NNN perturbation
# L = 28, S_z^tot = 4, J = 1, Delta = 0.5, g = 0.20
# Time dependence of normalized spin current autocorrelation function, with time rescaled by g^2
# tJg^2, C_sigma(t)

0.000000000000000000e+00 1.000000000000000000e+00
4.000000000000000777e-02 9.918206434064793520e-01
8.000000000000001554e-02 9.752597963430678085e-01
1.200000000000000233e-01 9.569923241140064762e-01
1.600000000000000311e-01 9.387341364667789456e-01
2.000000000000000389e-01 9.219727853422529096e-01
2.400000000000000466e-01 9.068137528883341014e-01
2.800000000000000266e-01 8.929093706692735610e-01
3.200000000000000622e-01 8.799473641933311940e-01
3.600000000000000977e-01 8.676844721632982482e-01
4.000000000000000777e-01 8.559548157415293179e-01
4.400000000000000577e-01 8.446516590538512004e-01
4.800000000000000933e-01 8.337083147623892687e-01
5.200000000000001288e-01 8.230887343799723199e-01
5.600000000000000533e-01 8.127715263246154676e-01
6.000000000000000888e-01 8.027479609938635852e-01
6.400000000000001243e-01 7.930079840810225766e-01
6.800000000000001599e-01 7.835354146103121753e-01
7.200000000000001954e-01 7.743131623955333831e-01
7.600000000000001199e-01 7.653229059909152365e-01
8.000000000000001554e-01 7.565578127941388065e-01
8.400000000000001910e-01 7.480185572924311632e-01
8.800000000000001155e-01 7.396992501924064545e-01
9.200000000000001510e-01 7.315974909304926443e-01
9.600000000000001865e-01 7.237084152298218775e-01
1.000000000000000222e+00 7.160199516148120225e-01
1.040000000000000258e+00 7.085179168075707024e-01
1.080000000000000293e+00 7.011854039839230390e-01
1.120000000000000107e+00 6.939981234893218831e-01
1.160000000000000142e+00 6.869347080308687570e-01
1.200000000000000178e+00 6.799752218896363276e-01
1.240000000000000213e+00 6.731068718153709884e-01
1.280000000000000249e+00 6.663234017635155659e-01
1.320000000000000284e+00 6.596246710652013956e-01
1.360000000000000320e+00 6.530110361480212511e-01
1.400000000000000355e+00 6.464826391354382418e-01
1.440000000000000391e+00 6.400408655510319011e-01
1.480000000000000204e+00 6.336806345084914360e-01
1.520000000000000240e+00 6.273991799716457374e-01
1.560000000000000275e+00 6.211951072255120776e-01
1.600000000000000311e+00 6.150669907316421714e-01
1.640000000000000346e+00 6.090172051268188946e-01
1.680000000000000382e+00 6.030440402035809333e-01
1.720000000000000417e+00 5.971446345805930811e-01
1.760000000000000231e+00 5.913178115393016299e-01
1.800000000000000266e+00 5.855587205862663458e-01
1.840000000000000302e+00 5.798654384166809228e-01
1.880000000000000338e+00 5.742391242822898478e-01
1.920000000000000373e+00 5.686779604171909863e-01
1.960000000000000409e+00 5.631806645856372029e-01
2.000000000000000444e+00 5.577466828195696280e-01
2.040000000000000480e+00 5.523731120719270749e-01
2.080000000000000515e+00 5.470580613394341318e-01
2.120000000000000551e+00 5.418069011380776123e-01
2.160000000000000586e+00 5.366243175497350526e-01
2.200000000000000622e+00 5.315050916484529431e-01
2.240000000000000213e+00 5.264422937315603734e-01
2.280000000000000249e+00 5.214392310424411647e-01
2.320000000000000284e+00 5.164935032834069295e-01
2.360000000000000320e+00 5.116008823524307303e-01
2.400000000000000355e+00 5.067644552965997473e-01
2.440000000000000391e+00 5.019823526083122545e-01
2.480000000000000426e+00 4.972530299439711365e-01
2.520000000000000462e+00 4.925754997582418859e-01
2.560000000000000497e+00 4.879467138547574634e-01
2.600000000000000533e+00 4.833695040796602282e-01
2.640000000000000568e+00 4.788449340134388610e-01
2.680000000000000604e+00 4.743689420570832982e-01
2.720000000000000639e+00 4.699375133181160069e-01
2.760000000000000675e+00 4.655497084891322968e-01
2.800000000000000711e+00 4.612057524585888024e-01
2.840000000000000746e+00 4.569024542223297236e-01
2.880000000000000782e+00 4.526399017245404388e-01
2.920000000000000373e+00 4.484267243719486373e-01
2.960000000000000409e+00 4.442684566138005997e-01
3.000000000000000444e+00 4.401645041925446034e-01
3.040000000000000480e+00 4.361102569038087795e-01
3.080000000000000515e+00 4.321001519371368560e-01
3.120000000000000551e+00 4.281347930958044334e-01
3.160000000000000586e+00 4.242157421642767101e-01
3.200000000000000622e+00 4.203414218363615285e-01
3.240000000000000657e+00 4.165144685901394084e-01
3.280000000000000693e+00 4.127353900087428751e-01
3.320000000000000728e+00 4.089987659082383042e-01
3.360000000000000764e+00 4.053024709980466156e-01
3.400000000000000799e+00 4.016468207744459673e-01
3.440000000000000835e+00 3.980302308582090443e-01
3.480000000000000870e+00 3.944515513371926740e-01
3.520000000000000462e+00 3.909068374372341448e-01
3.560000000000000497e+00 3.873964828717930131e-01
3.600000000000000533e+00 3.839251243807284553e-01
3.640000000000000568e+00 3.804971224573103217e-01
3.680000000000000604e+00 3.771114328204658861e-01
3.720000000000000639e+00 3.737675606268275885e-01
3.760000000000000675e+00 3.704656521941107061e-01
3.800000000000000711e+00 3.672019897375580766e-01
3.840000000000000746e+00 3.639695519364861687e-01
3.880000000000000782e+00 3.607684917122729318e-01
3.920000000000000817e+00 3.575966858850361252e-01
3.960000000000000853e+00 3.544492586770511822e-01
4.000000000000000888e+00 3.513277874851405413e-01
4.040000000000000924e+00 3.482337167912815112e-01
4.080000000000000959e+00 3.451691053251267904e-01
4.120000000000000995e+00 3.421354968638851135e-01
4.160000000000001030e+00 3.391353524169993250e-01
4.200000000000001066e+00 3.361642946311185209e-01
4.240000000000001101e+00 3.332248879326791258e-01
4.280000000000001137e+00 3.303181930926550880e-01
4.320000000000001172e+00 3.274400680290456278e-01
4.360000000000001208e+00 3.245881979508029591e-01
4.400000000000001243e+00 3.217616614160618282e-01
4.440000000000001279e+00 3.189606694810529497e-01
4.480000000000000426e+00 3.161840006436643091e-01
4.520000000000000462e+00 3.134351778874884809e-01
4.560000000000000497e+00 3.107227047988928570e-01
4.600000000000000533e+00 3.080397536772760958e-01
4.640000000000000568e+00 3.053797368576297577e-01
4.680000000000000604e+00 3.027418037106436310e-01
4.720000000000000639e+00 3.001262929068141405e-01
4.760000000000000675e+00 2.975389838403603160e-01
4.800000000000000711e+00 2.949791698098270798e-01
4.840000000000000746e+00 2.924454513556801749e-01
4.880000000000000782e+00 2.899366492020808428e-01
4.920000000000000817e+00 2.874530344682709182e-01
4.960000000000000853e+00 2.849972508048528308e-01
5.000000000000000888e+00 2.825682742612690701e-01
5.040000000000000924e+00 2.801687345448323208e-01
5.080000000000000959e+00 2.777973936940996702e-01
5.120000000000000995e+00 2.754509828357410428e-01
5.160000000000001030e+00 2.731293081601508521e-01
5.200000000000001066e+00 2.708300279192950577e-01
5.240000000000001101e+00 2.685478207863036260e-01
5.280000000000001137e+00 2.662847586837496783e-01
5.320000000000001172e+00 2.640417359090785343e-01
5.360000000000001208e+00 2.618187036698031434e-01
5.400000000000001243e+00 2.596158383762702249e-01
5.440000000000001279e+00 2.574325184682261791e-01
5.480000000000001315e+00 2.552724296558404604e-01
5.520000000000001350e+00 2.531381755205013295e-01
5.560000000000001386e+00 2.510358391707095960e-01
5.600000000000001421e+00 2.489620091221070031e-01
5.640000000000001457e+00 2.469101457424317525e-01
5.680000000000001492e+00 2.448736230129842650e-01
5.720000000000001528e+00 2.428475153912211804e-01
5.760000000000001563e+00 2.408370359046877462e-01
5.800000000000000711e+00 2.388477912337081122e-01
5.840000000000000746e+00 2.368835452438195210e-01
5.880000000000000782e+00 2.349373264027073693e-01
5.920000000000000817e+00 2.330083522619090242e-01
5.960000000000000853e+00 2.310956323409598390e-01
6.000000000000000888e+00 2.291979185786641726e-01
6.040000000000000924e+00 2.273207926358214725e-01
6.080000000000000959e+00 2.254629188062780287e-01
6.120000000000000995e+00 2.236225060990513769e-01
6.160000000000001030e+00 2.217957030306543231e-01
6.200000000000001066e+00 2.199788785866695906e-01
6.240000000000001101e+00 2.181779471573171147e-01
6.280000000000001137e+00 2.163959177262846367e-01
6.320000000000001172e+00 2.146288108354126034e-01
6.360000000000001208e+00 2.128755608752485040e-01
6.400000000000001243e+00 2.111335683533464846e-01
6.440000000000001279e+00 2.094026355079497692e-01
6.480000000000001315e+00 2.076857303144981348e-01
6.520000000000001350e+00 2.059869510749499366e-01
6.560000000000001386e+00 2.043066587566726156e-01
6.600000000000001421e+00 2.026429661407605221e-01
6.640000000000001457e+00 2.009916511289274732e-01
6.680000000000001492e+00 1.993532033830769656e-01
6.720000000000001528e+00 1.977316630311725942e-01
6.760000000000001563e+00 1.961290944222244259e-01
6.800000000000001599e+00 1.945440034423405185e-01
6.840000000000001634e+00 1.929758211875727270e-01
6.880000000000001670e+00 1.914256457816993218e-01
6.920000000000001705e+00 1.898923263451524623e-01
6.960000000000001741e+00 1.883701273479743143e-01
7.000000000000001776e+00 1.868623938451359212e-01
7.040000000000000924e+00 1.853698107319935451e-01
7.080000000000000959e+00 1.838837027314733641e-01
7.120000000000000995e+00 1.824015673785820968e-01
7.160000000000001030e+00 1.809274079486032916e-01
7.200000000000001066e+00 1.794623795202906213e-01
7.240000000000001101e+00 1.780070996289372931e-01
7.280000000000001137e+00 1.765669503227784154e-01
7.320000000000001172e+00 1.751465349821536843e-01
7.360000000000001208e+00 1.737448068218873376e-01
7.400000000000001243e+00 1.723593429923221954e-01
7.440000000000001279e+00 1.709899231912948570e-01
7.480000000000001315e+00 1.696311473016132998e-01
7.520000000000001350e+00 1.682791153690078034e-01
7.560000000000001386e+00 1.669385999081538507e-01
7.600000000000001421e+00 1.656116043688825312e-01
7.640000000000001457e+00 1.642951497931733063e-01
7.680000000000001492e+00 1.629929393397830384e-01
7.720000000000001528e+00 1.617043091342829642e-01
7.760000000000001563e+00 1.604301300363281113e-01
7.800000000000001599e+00 1.591720009255969126e-01
7.840000000000001634e+00 1.579324741932697229e-01
7.880000000000001670e+00 1.567063946437305955e-01
7.920000000000001705e+00 1.554883836393762819e-01
7.960000000000001741e+00 1.542799558894787093e-01
8.000000000000001776e+00 1.530772509623443134e-01
8.040000000000000924e+00 1.518846525674222292e-01
8.080000000000001847e+00 1.507033666586397314e-01
8.120000000000000995e+00 1.495282507292767515e-01
8.160000000000001918e+00 1.483575350822143868e-01
8.200000000000001066e+00 1.471932173665300991e-01
8.240000000000001990e+00 1.460383382633775318e-01
8.280000000000001137e+00 1.448930013359530367e-01
8.320000000000002061e+00 1.437543728325406112e-01
8.360000000000001208e+00 1.426258481884970231e-01
8.400000000000002132e+00 1.415118060965299684e-01
8.440000000000001279e+00 1.404077996889369351e-01
8.480000000000002203e+00 1.393082143267178330e-01
8.520000000000001350e+00 1.382093195240998440e-01
8.560000000000002274e+00 1.371116227644318120e-01
8.600000000000001421e+00 1.360190191889746603e-01
8.640000000000002345e+00 1.349399035373060052e-01
8.680000000000001492e+00 1.338781254239387875e-01
8.720000000000002416e+00 1.328281544486511201e-01
8.760000000000001563e+00 1.317871739581165658e-01
8.800000000000002487e+00 1.307560163460252667e-01
8.840000000000001634e+00 1.297325101626640997e-01
8.880000000000002558e+00 1.287178550056879700e-01
8.920000000000001705e+00 1.277135884254740061e-01
8.960000000000000853e+00 1.267208028192553793e-01
9.000000000000001776e+00 1.257411068561191947e-01
9.040000000000000924e+00 1.247719891103815787e-01
9.080000000000001847e+00 1.238110357426494001e-01
9.120000000000000995e+00 1.228560646599531209e-01
9.160000000000001918e+00 1.219051110396115190e-01
9.200000000000001066e+00 1.209631816295079071e-01
9.240000000000001990e+00 1.200324063455592977e-01
9.280000000000001137e+00 1.191098491994951741e-01
9.320000000000002061e+00 1.181971168408221112e-01
9.360000000000001208e+00 1.172894971059938590e-01
9.400000000000002132e+00 1.163821502452528911e-01
9.440000000000001279e+00 1.154773238914523215e-01
9.480000000000002203e+00 1.145798049467406654e-01
9.520000000000001350e+00 1.136910150524898383e-01
9.560000000000002274e+00 1.128074986611949798e-01
9.600000000000001421e+00 1.119298850675286283e-01
9.640000000000002345e+00 1.110622701124981543e-01
9.680000000000001492e+00 1.102032564802596232e-01
9.720000000000002416e+00 1.093552937237571437e-01
9.760000000000001563e+00 1.085181656315254983e-01
9.800000000000002487e+00 1.076896870581441623e-01
9.840000000000001634e+00 1.068759547222892792e-01
9.880000000000002558e+00 1.060749002177674843e-01
9.920000000000001705e+00 1.052861717474326275e-01
9.960000000000002629e+00 1.045109570304044444e-01
1.000000000000000178e+01 1.037399034538944304e-01
1.004000000000000270e+01 1.029706686127682819e-01
1.008000000000000185e+01 1.022057389462364546e-01
1.012000000000000277e+01 1.014436802427829964e-01
1.016000000000000192e+01 1.006837431595373339e-01
1.020000000000000284e+01 9.992739417132801005e-02
1.024000000000000199e+01 9.917269583561681701e-02
1.028000000000000114e+01 9.841918848713315793e-02
1.032000000000000206e+01 9.767026791830274446e-02
1.036000000000000121e+01 9.692717494651778565e-02
1.040000000000000213e+01 9.618621358054947612e-02
1.044000000000000128e+01 9.544700862145531761e-02
1.048000000000000220e+01 9.471100798028650458e-02
1.052000000000000135e+01 9.398196611786380217e-02
1.056000000000000227e+01 9.325976660850246458e-02
1.060000000000000142e+01 9.254344578136666777e-02
1.064000000000000234e+01 9.183574813295609929e-02
1.068000000000000149e+01 9.113696879384963756e-02
1.072000000000000242e+01 9.044200303158259069e-02
1.076000000000000156e+01 8.975240808373440016e-02
1.080000000000000249e+01 8.906846959054140478e-02
1.084000000000000163e+01 8.838640076827021519e-02
1.088000000000000256e+01 8.770601822186198382e-02
1.092000000000000171e+01 8.702900358999389463e-02
1.096000000000000263e+01 8.635954937525189279e-02
1.100000000000000178e+01 8.569836455078945481e-02
1.104000000000000270e+01 8.504376063504755223e-02
1.108000000000000185e+01 8.439254906829624092e-02
1.112000000000000277e+01 8.374158726747521486e-02
1.116000000000000192e+01 8.309428864618385868e-02
1.120000000000000284e+01 8.245534540686644265e-02
1.124000000000000199e+01 8.182809073212068962e-02
1.128000000000000291e+01 8.121244386591400244e-02
1.132000000000000206e+01 8.060521576238731389e-02
1.136000000000000298e+01 8.000752802545900433e-02
1.140000000000000213e+01 7.941812430189933159e-02
1.144000000000000306e+01 7.883350900222886593e-02
1.148000000000000220e+01 7.825357421186826534e-02
1.152000000000000313e+01 7.767393174296417790e-02
1.156000000000000227e+01 7.709698828371877588e-02
1.160000000000000142e+01 7.652479642299533924e-02
1.164000000000000234e+01 7.595863910823164034e-02
1.168000000000000149e+01 7.539846613757228422e-02
1.172000000000000242e+01 7.483814170359559537e-02
1.176000000000000156e+01 7.427891126805831468e-02
1.180000000000000249e+01 7.372550496762118877e-02
1.184000000000000163e+01 7.317556717157462642e-02
1.188000000000000256e+01 7.262933349944943051e-02
1.192000000000000171e+01 7.208169978932230104e-02
1.196000000000000263e+01 7.153146541029745120e-02
1.200000000000000178e+01 7.097922829527077149e-02
1.204000000000000270e+01 7.042908647228976471e-02
1.208000000000000185e+01 6.988559913843965521e-02
1.212000000000000277e+01 6.934549857045685384e-02
1.216000000000000192e+01 6.880904685084633654e-02
1.220000000000000284e+01 6.828079927045895003e-02
1.224000000000000199e+01 6.776052574025973052e-02
1.228000000000000291e+01 6.724206357059415995e-02
1.232000000000000206e+01 6.672339255139979330e-02
1.236000000000000298e+01 6.620507512291894103e-02
1.240000000000000213e+01 6.568839828868031083e-02
1.244000000000000306e+01 6.517838201190202796e-02
1.248000000000000220e+01 6.467854540320720769e-02
1.252000000000000313e+01 6.418488458852091016e-02
1.256000000000000227e+01 6.369260209204252732e-02
1.260000000000000320e+01 6.319903559817645344e-02
1.264000000000000234e+01 6.270361977697121170e-02
1.268000000000000327e+01 6.221189738137134634e-02
1.272000000000000242e+01 6.172755157091475847e-02
1.276000000000000334e+01 6.124978480147879462e-02
1.280000000000000249e+01 6.077945625587208994e-02
1.284000000000000163e+01 6.032078375360169081e-02
1.288000000000000256e+01 5.986928523424483312e-02
1.292000000000000171e+01 5.941902260563281662e-02
1.296000000000000263e+01 5.897061909905206012e-02
1.300000000000000178e+01 5.852404203989113735e-02
1.304000000000000270e+01 5.807816599182128586e-02
1.308000000000000185e+01 5.763239365115456481e-02
1.312000000000000277e+01 5.718729666933985989e-02
1.316000000000000192e+01 5.674210568191069559e-02
1.320000000000000284e+01 5.629961265865743303e-02
1.324000000000000199e+01 5.586556095028550467e-02
1.328000000000000291e+01 5.543978717898636471e-02
1.332000000000000206e+01 5.501837461749325281e-02
1.336000000000000298e+01 5.460205342995246014e-02
1.340000000000000213e+01 5.419243998792834527e-02
1.344000000000000306e+01 5.379221080593624138e-02
1.348000000000000220e+01 5.339829207954242124e-02
1.352000000000000313e+01 5.300379396221288619e-02
1.356000000000000227e+01 5.260580564765419270e-02
1.360000000000000320e+01 5.220190348083336707e-02
1.364000000000000234e+01 5.179307195836294064e-02
1.368000000000000327e+01 5.138064795312501098e-02
1.372000000000000242e+01 5.096608770338095090e-02
1.376000000000000334e+01 5.055826378527642634e-02
1.380000000000000249e+01 5.015954095729670270e-02
1.384000000000000341e+01 4.976704719215095662e-02
1.388000000000000256e+01 4.938278965251995806e-02
1.392000000000000348e+01 4.900585513429154411e-02
1.396000000000000263e+01 4.863109363155177639e-02
1.400000000000000355e+01 4.825606089770108353e-02
1.404000000000000270e+01 4.787912569502680155e-02
1.408000000000000185e+01 4.750291965848466025e-02
1.412000000000000277e+01 4.713092913772797682e-02
1.416000000000000192e+01 4.676242226203648766e-02
1.420000000000000284e+01 4.639779758337821830e-02
1.424000000000000199e+01 4.604199269614314000e-02
1.428000000000000291e+01 4.569450978942176528e-02
1.432000000000000206e+01 4.535435917883971768e-02
1.436000000000000298e+01 4.502061716357206450e-02
1.440000000000000213e+01 4.469262686732905498e-02
1.444000000000000306e+01 4.436643201880488552e-02
1.448000000000000220e+01 4.404247746625129800e-02
1.452000000000000313e+01 4.372113424836319984e-02
1.456000000000000227e+01 4.340265268847309788e-02
1.460000000000000320e+01 4.308851567907816954e-02
1.464000000000000234e+01 4.277831624889160550e-02
1.468000000000000327e+01 4.247162820825812340e-02
1.472000000000000242e+01 4.216801509941491694e-02
1.476000000000000334e+01 4.187009007053893450e-02
1.480000000000000249e+01 4.157514614482488158e-02
1.484000000000000341e+01 4.127626472910361083e-02
1.488000000000000256e+01 4.097114709939982113e-02
1.492000000000000348e+01 4.065956458899377263e-02
1.496000000000000263e+01 4.033998340356425433e-02
1.500000000000000355e+01 4.001739822498641408e-02
1.504000000000000270e+01 3.969542823499146167e-02
1.508000000000000362e+01 3.937489105075171053e-02
1.512000000000000277e+01 3.905420805023162439e-02
1.516000000000000369e+01 3.873474738926818012e-02
1.520000000000000284e+01 3.841995538526998821e-02
1.524000000000000377e+01 3.810946342995739922e-02
1.528000000000000291e+01 3.779902409282784315e-02
1.532000000000000384e+01 3.748795257506582629e-02
1.536000000000000298e+01 3.718149468740336583e-02
1.540000000000000213e+01 3.688298213179573570e-02
1.544000000000000306e+01 3.659200330984021393e-02
1.548000000000000220e+01 3.630911314371368381e-02
1.552000000000000313e+01 3.603299357246821100e-02
1.556000000000000227e+01 3.576024964614542972e-02
1.560000000000000320e+01 3.549493595130037704e-02
1.564000000000000234e+01 3.523449997187922539e-02
1.568000000000000327e+01 3.497268606406965519e-02
1.572000000000000242e+01 3.470985247388030936e-02
1.576000000000000334e+01 3.444539328323736882e-02
