# XXZ chain with NNN perturbation
# L = 28, S_z^tot = 4, J = 1, Delta = 0.5, g = 0.40
# Time dependence of normalized spin current autocorrelation function
# tJ, C_sigma(t)

0.000000000000000000e+00 1.000000000000000000e+00
1.000000000000000000e+00 9.629621525580150943e-01
2.000000000000000000e+00 8.783137780088920987e-01
3.000000000000000000e+00 7.778633597169252178e-01
4.000000000000000000e+00 6.776385187682385514e-01
5.000000000000000000e+00 5.853838719001066559e-01
6.000000000000000000e+00 5.033362132624689123e-01
7.000000000000000000e+00 4.319716694365650089e-01
8.000000000000000000e+00 3.710159251333809971e-01
9.000000000000000000e+00 3.196908181597979404e-01
1.000000000000000000e+01 2.768892714434919577e-01
1.100000000000000000e+01 2.414058378515935854e-01
1.200000000000000000e+01 2.121197155611370400e-01
1.300000000000000000e+01 1.880829601094257952e-01
1.400000000000000000e+01 1.684794175724479426e-01
1.500000000000000000e+01 1.525419073282175964e-01
1.600000000000000000e+01 1.395865947669278073e-01
1.700000000000000000e+01 1.290551375151820224e-01
1.800000000000000000e+01 1.205188612925240654e-01
1.900000000000000000e+01 1.136372715636673331e-01
2.000000000000000000e+01 1.081198249092039099e-01
2.100000000000000000e+01 1.037351889764609042e-01
2.200000000000000000e+01 1.002900127590363871e-01
2.300000000000000000e+01 9.759997110178589286e-02
2.400000000000000000e+01 9.548406224425544375e-02
2.500000000000000000e+01 9.378200661010462069e-02
2.600000000000000000e+01 9.234814765791908575e-02
2.700000000000000000e+01 9.106207842985586387e-02
2.800000000000000000e+01 8.982579261192341624e-02
2.900000000000000000e+01 8.855873713483317089e-02
3.000000000000000000e+01 8.720283616681047401e-02
3.100000000000000000e+01 8.572826539464001305e-02
3.200000000000000000e+01 8.414089074503838805e-02
3.300000000000000000e+01 8.246140488732191243e-02
3.400000000000000000e+01 8.070515472206449270e-02
3.500000000000000000e+01 7.887960253926321053e-02
3.600000000000000000e+01 7.699676619454150217e-02
3.700000000000000000e+01 7.507297477376503880e-02
3.800000000000000000e+01 7.311125488392307414e-02
3.900000000000000000e+01 7.111379675937375133e-02
4.000000000000000000e+01 6.909357080662716089e-02
4.100000000000000000e+01 6.706321465859560460e-02
4.200000000000000000e+01 6.503784739644866142e-02
4.300000000000000000e+01 6.303606307139766884e-02
4.400000000000000000e+01 6.108809317764862801e-02
4.500000000000000000e+01 5.921489814804038049e-02
4.600000000000000000e+01 5.741884476485606403e-02
4.700000000000000000e+01 5.570466512205664994e-02
4.800000000000000000e+01 5.408277656812015416e-02
4.900000000000000000e+01 5.255643975443155536e-02
5.000000000000000000e+01 5.111856773030108714e-02
5.100000000000000000e+01 4.974231532534050676e-02
5.200000000000000000e+01 4.839257317347766402e-02
5.300000000000000000e+01 4.705408941728782962e-02
5.400000000000000000e+01 4.573832332758161895e-02
5.500000000000000000e+01 4.446582441210276265e-02
5.600000000000000000e+01 4.324011381317175579e-02
5.700000000000000000e+01 4.205479076997024196e-02
5.800000000000000000e+01 4.090028729977963212e-02
5.900000000000000000e+01 3.977810028229365052e-02
6.000000000000000000e+01 3.869031929554748311e-02
6.100000000000000000e+01 3.763710479865187142e-02
6.200000000000000000e+01 3.661876083039313640e-02
6.300000000000000000e+01 3.562739882236920508e-02
6.400000000000000000e+01 3.465322033219328524e-02
6.500000000000000000e+01 3.370157886696097116e-02
6.600000000000000000e+01 3.277480621491053042e-02
6.700000000000000000e+01 3.187292741671614305e-02
6.800000000000000000e+01 3.099925929578155326e-02
6.900000000000000000e+01 3.014472957502952605e-02
7.000000000000000000e+01 2.930296871463108910e-02
7.100000000000000000e+01 2.847722941563050544e-02
7.200000000000000000e+01 2.767041059357413374e-02
7.300000000000000000e+01 2.689738139842565504e-02
7.400000000000000000e+01 2.616489692142907886e-02
7.500000000000000000e+01 2.547619823901443870e-02
7.600000000000000000e+01 2.482582507936007682e-02
7.700000000000000000e+01 2.419045670805831244e-02
7.800000000000000000e+01 2.354176418440209750e-02
7.900000000000000000e+01 2.289053260243899268e-02
8.000000000000000000e+01 2.226599431400569026e-02
8.100000000000000000e+01 2.169191965820185461e-02
8.200000000000000000e+01 2.116678365433434864e-02
8.300000000000000000e+01 2.066913917829161715e-02
8.400000000000000000e+01 2.019447502525290039e-02
8.500000000000000000e+01 1.974484181350308343e-02
8.600000000000000000e+01 1.931862604106403952e-02
8.700000000000000000e+01 1.892024221341933113e-02
8.800000000000000000e+01 1.855158137763721071e-02
8.900000000000000000e+01 1.820454314628669121e-02
9.000000000000000000e+01 1.786188135939577662e-02
9.100000000000000000e+01 1.751812810923793901e-02
9.200000000000000000e+01 1.716867814517166607e-02
9.300000000000000000e+01 1.681241260190302622e-02
9.400000000000000000e+01 1.643963486735887727e-02
9.500000000000000000e+01 1.605820575191993504e-02
9.600000000000000000e+01 1.567109329466038689e-02
9.700000000000000000e+01 1.526298077248067556e-02
9.800000000000000000e+01 1.482803802230723070e-02
9.900000000000000000e+01 1.437183394100727089e-02
1.000000000000000000e+02 1.389858751338713533e-02
1.010000000000000000e+02 1.341728287189126664e-02
1.020000000000000000e+02 1.293488683204763005e-02
1.030000000000000000e+02 1.245265944588435508e-02
1.040000000000000000e+02 1.197333689996655202e-02
1.050000000000000000e+02 1.151007424689643767e-02
1.060000000000000000e+02 1.108011546849044411e-02
1.070000000000000000e+02 1.068041000216221441e-02
1.080000000000000000e+02 1.030140494250293172e-02
1.090000000000000000e+02 9.952174033581543192e-03
1.100000000000000000e+02 9.650166812182411555e-03
1.110000000000000000e+02 9.412568217511275981e-03
1.120000000000000000e+02 9.238672288019394649e-03
1.130000000000000000e+02 9.109996108209724580e-03
1.140000000000000000e+02 9.012597835048498027e-03
1.150000000000000000e+02 8.931829059241785593e-03
1.160000000000000000e+02 8.851064508139582995e-03
1.170000000000000000e+02 8.774061010744323499e-03
1.180000000000000000e+02 8.707074918106674430e-03
1.190000000000000000e+02 8.645009884351274876e-03
1.200000000000000000e+02 8.576756913530322185e-03
1.210000000000000000e+02 8.490470811864263279e-03
1.220000000000000000e+02 8.400416146017997132e-03
1.230000000000000000e+02 8.317229452814203436e-03
1.240000000000000000e+02 8.226469817020678685e-03
1.250000000000000000e+02 8.122292155446004733e-03
1.260000000000000000e+02 8.002858447246328361e-03
1.270000000000000000e+02 7.869699262866708400e-03
1.280000000000000000e+02 7.728747223312826785e-03
1.290000000000000000e+02 7.593923894074797523e-03
1.300000000000000000e+02 7.473141980089783622e-03
1.310000000000000000e+02 7.361599307778767670e-03
1.320000000000000000e+02 7.254673355940616936e-03
1.330000000000000000e+02 7.136146133845690936e-03
1.340000000000000000e+02 6.992673196465092923e-03
1.350000000000000000e+02 6.806036456266316079e-03
1.360000000000000000e+02 6.579971108598628785e-03
1.370000000000000000e+02 6.338317183709515912e-03
1.380000000000000000e+02 6.096131948763459582e-03
1.390000000000000000e+02 5.860508841389954621e-03
1.400000000000000000e+02 5.630797694865870458e-03
1.410000000000000000e+02 5.416704527584508683e-03
1.420000000000000000e+02 5.227507930274019436e-03
1.430000000000000000e+02 5.051565960832098828e-03
1.440000000000000000e+02 4.872166860762319751e-03
1.450000000000000000e+02 4.685768652327158314e-03
1.460000000000000000e+02 4.495971893360648994e-03
1.470000000000000000e+02 4.307907168910077474e-03
1.480000000000000000e+02 4.113862652685928122e-03
1.490000000000000000e+02 3.916860394619107663e-03
1.500000000000000000e+02 3.732134676390396616e-03
1.510000000000000000e+02 3.566582869002873565e-03
1.520000000000000000e+02 3.424630027907003653e-03
1.530000000000000000e+02 3.298204468733643372e-03
1.540000000000000000e+02 3.182991546307467178e-03
1.550000000000000000e+02 3.073638760219214033e-03
1.560000000000000000e+02 2.967432029628552098e-03
1.570000000000000000e+02 2.866288277210237660e-03
1.580000000000000000e+02 2.774859435722928404e-03
1.590000000000000000e+02 2.685390921965954709e-03
1.600000000000000000e+02 2.591478964042639912e-03
1.610000000000000000e+02 2.483553547388340707e-03
1.620000000000000000e+02 2.352314438023805909e-03
1.630000000000000000e+02 2.207509837138938759e-03
1.640000000000000000e+02 2.075663021347627819e-03
1.650000000000000000e+02 1.967174398435658951e-03
1.660000000000000000e+02 1.879077363781704027e-03
1.670000000000000000e+02 1.815196743922846108e-03
1.680000000000000000e+02 1.774937044939272875e-03
1.690000000000000000e+02 1.751505062261553324e-03
1.700000000000000000e+02 1.736707430906675887e-03
1.710000000000000000e+02 1.710345544277384498e-03
1.720000000000000000e+02 1.669421719295086960e-03
1.730000000000000000e+02 1.640071865104089817e-03
1.740000000000000000e+02 1.637233022603025012e-03
1.750000000000000000e+02 1.658113793502752559e-03
1.760000000000000000e+02 1.688106816834752163e-03
1.770000000000000000e+02 1.720221282409715698e-03
1.780000000000000000e+02 1.757419428221120537e-03
1.790000000000000000e+02 1.789900815212593262e-03
1.800000000000000000e+02 1.813038942495359424e-03
1.810000000000000000e+02 1.821370872576200638e-03
1.820000000000000000e+02 1.804881185859858470e-03
1.830000000000000000e+02 1.778812323171645102e-03
1.840000000000000000e+02 1.750715208651079614e-03
1.850000000000000000e+02 1.740028377959897989e-03
1.860000000000000000e+02 1.766481624114186414e-03
1.870000000000000000e+02 1.836610831927508892e-03
1.880000000000000000e+02 1.941118361232187966e-03
1.890000000000000000e+02 2.049077239609845263e-03
1.900000000000000000e+02 2.126341115972357927e-03
1.910000000000000000e+02 2.170697993285653025e-03
1.920000000000000000e+02 2.187840258485239647e-03
1.930000000000000000e+02 2.185256153333954045e-03
1.940000000000000000e+02 2.162476960957458554e-03
1.950000000000000000e+02 2.120378627591235510e-03
1.960000000000000000e+02 2.065742894499703226e-03
1.970000000000000000e+02 1.997922906806083414e-03
1.980000000000000000e+02 1.921595016419729842e-03
1.990000000000000000e+02 1.851538080622014285e-03
2.000000000000000000e+02 1.798282229437524974e-03
2.010000000000000000e+02 1.758328975913768825e-03
2.020000000000000000e+02 1.729669549592446507e-03
2.030000000000000000e+02 1.717531479038607182e-03
2.040000000000000000e+02 1.720961998540000270e-03
2.050000000000000000e+02 1.734901495056856034e-03
2.060000000000000000e+02 1.753036345490910104e-03
2.070000000000000000e+02 1.758292265587504304e-03
2.080000000000000000e+02 1.743804661440319023e-03
2.090000000000000000e+02 1.708381013793935747e-03
2.100000000000000000e+02 1.648293460047417806e-03
2.110000000000000000e+02 1.571113926829072324e-03
2.120000000000000000e+02 1.496269192998782695e-03
2.130000000000000000e+02 1.435279898429621739e-03
2.140000000000000000e+02 1.392592270945297453e-03
2.150000000000000000e+02 1.362690607415556823e-03
2.160000000000000000e+02 1.341883135676863502e-03
2.170000000000000000e+02 1.329669123840858695e-03
2.180000000000000000e+02 1.335968875046766044e-03
2.190000000000000000e+02 1.360608555886472400e-03
2.200000000000000000e+02 1.389706111893144157e-03
2.210000000000000000e+02 1.417853493501735522e-03
2.220000000000000000e+02 1.447353295258277644e-03
2.230000000000000000e+02 1.476118278726493930e-03
2.240000000000000000e+02 1.493658634473476066e-03
2.250000000000000000e+02 1.489340294369571925e-03
2.260000000000000000e+02 1.463102208515650688e-03
2.270000000000000000e+02 1.402251263385667635e-03
2.280000000000000000e+02 1.309109327925888841e-03
2.290000000000000000e+02 1.194847358179635657e-03
2.300000000000000000e+02 1.078448704818195641e-03
2.310000000000000000e+02 9.713306886558811934e-04
2.320000000000000000e+02 8.771434643833087583e-04
2.330000000000000000e+02 7.922194637774966977e-04
2.340000000000000000e+02 6.982188087407082073e-04
2.350000000000000000e+02 5.928661666486214959e-04
2.360000000000000000e+02 4.795164594748698079e-04
2.370000000000000000e+02 3.761308787100701664e-04
2.380000000000000000e+02 3.016256854518910746e-04
2.390000000000000000e+02 2.518671621462799295e-04
2.400000000000000000e+02 2.083925728955450020e-04
2.410000000000000000e+02 1.603363156317585405e-04
2.420000000000000000e+02 1.080738714283416979e-04
2.430000000000000000e+02 5.681237477953644306e-05
2.440000000000000000e+02 1.008655003120019012e-05
2.450000000000000000e+02 -3.694010592614007413e-05
2.460000000000000000e+02 -8.187976136837824893e-05
2.470000000000000000e+02 -1.206400206420374605e-04
2.480000000000000000e+02 -1.559983923064164576e-04
2.490000000000000000e+02 -1.981189626375751784e-04
2.500000000000000000e+02 -2.381382012782931753e-04
2.510000000000000000e+02 -2.517629706131072412e-04
2.520000000000000000e+02 -2.322243419063323524e-04
2.530000000000000000e+02 -1.807891751860116051e-04
2.540000000000000000e+02 -1.050337271339632386e-04
2.550000000000000000e+02 -1.923827538503653938e-05
2.560000000000000000e+02 5.994510829623570403e-05
2.570000000000000000e+02 1.204427471446548026e-04
2.580000000000000000e+02 1.614009988359497343e-04
2.590000000000000000e+02 1.964836343939422268e-04
2.600000000000000000e+02 2.292624682563063846e-04
2.610000000000000000e+02 2.527636423890391852e-04
2.620000000000000000e+02 2.650659279349540658e-04
2.630000000000000000e+02 2.671330491106003167e-04
2.640000000000000000e+02 2.615350933890179500e-04
2.650000000000000000e+02 2.518852882787752322e-04
2.660000000000000000e+02 2.419573486042319351e-04
2.670000000000000000e+02 2.155000269869292184e-04
2.680000000000000000e+02 1.573516977562497974e-04
2.690000000000000000e+02 6.346625031668913476e-05
2.700000000000000000e+02 -5.288556501640323169e-05
2.710000000000000000e+02 -1.838483846899628465e-04
2.720000000000000000e+02 -3.324067928988830951e-04
2.730000000000000000e+02 -4.935887222488996758e-04
2.740000000000000000e+02 -6.434936421980743141e-04
2.750000000000000000e+02 -7.623764324550172649e-04
2.760000000000000000e+02 -8.392611377210186172e-04
2.770000000000000000e+02 -8.831572345598575138e-04
2.780000000000000000e+02 -9.011624769753142283e-04
2.790000000000000000e+02 -8.862967208133342182e-04
2.800000000000000000e+02 -8.507960819926253804e-04
2.810000000000000000e+02 -8.049525774724716970e-04
2.820000000000000000e+02 -7.473369222459095521e-04
2.830000000000000000e+02 -6.718285255190197588e-04
2.840000000000000000e+02 -5.903675483237812984e-04
2.850000000000000000e+02 -5.202460207078386887e-04
2.860000000000000000e+02 -4.732381285722078506e-04
2.870000000000000000e+02 -4.384669021096039088e-04
2.880000000000000000e+02 -4.015798195286156497e-04
2.890000000000000000e+02 -3.640727645222288427e-04
2.900000000000000000e+02 -3.353536181508007686e-04
2.910000000000000000e+02 -3.175511691605321083e-04
2.920000000000000000e+02 -3.072155159086007305e-04
2.930000000000000000e+02 -2.863281117443248667e-04
2.940000000000000000e+02 -2.485817798994117587e-04
2.950000000000000000e+02 -2.060883862995883150e-04
2.960000000000000000e+02 -1.641636755656181157e-04
2.970000000000000000e+02 -1.196828398466830671e-04
2.980000000000000000e+02 -7.766345884964288393e-05
2.990000000000000000e+02 -4.943770240448147640e-05
3.000000000000000000e+02 -2.925466433579337885e-05
3.010000000000000000e+02 -5.880709538837712997e-06
3.020000000000000000e+02 2.004106410105771722e-05
3.030000000000000000e+02 2.791588184852715016e-05
3.040000000000000000e+02 3.498420512095312925e-06
3.050000000000000000e+02 -7.130906266390401823e-05
3.060000000000000000e+02 -1.814393219394462478e-04
3.070000000000000000e+02 -3.045552824273563232e-04
3.080000000000000000e+02 -4.118888725364577017e-04
3.090000000000000000e+02 -4.805942148849087900e-04
3.100000000000000000e+02 -5.124569406449254504e-04
3.110000000000000000e+02 -5.223714454449682274e-04
3.120000000000000000e+02 -5.191205931873467665e-04
3.130000000000000000e+02 -5.085338075923069709e-04
3.140000000000000000e+02 -4.995686494847913998e-04
3.150000000000000000e+02 -4.898789686840577867e-04
3.160000000000000000e+02 -4.818338985471946369e-04
3.170000000000000000e+02 -4.765215633270114353e-04
3.180000000000000000e+02 -4.692877948076774452e-04
3.190000000000000000e+02 -4.698472549505568847e-04
3.200000000000000000e+02 -4.735338779634061263e-04
3.210000000000000000e+02 -4.718020801234554576e-04
3.220000000000000000e+02 -4.713187060911174626e-04
3.230000000000000000e+02 -4.686327827631143312e-04
3.240000000000000000e+02 -4.530195991195876885e-04
3.250000000000000000e+02 -4.158310160281427584e-04
3.260000000000000000e+02 -3.710820456321755646e-04
3.270000000000000000e+02 -3.393109032263713024e-04
3.280000000000000000e+02 -3.295198805353814395e-04
3.290000000000000000e+02 -3.300896736077346314e-04
3.300000000000000000e+02 -3.282329021777300620e-04
3.310000000000000000e+02 -3.169932508436349317e-04
3.320000000000000000e+02 -2.862771053714356813e-04
3.330000000000000000e+02 -2.426665605428342059e-04
3.340000000000000000e+02 -1.999848199834265651e-04
3.350000000000000000e+02 -1.602551948092069769e-04
3.360000000000000000e+02 -1.293310203126100727e-04
3.370000000000000000e+02 -1.064832794328666332e-04
3.380000000000000000e+02 -8.381636983020344738e-05
3.390000000000000000e+02 -5.233086365168084701e-05
3.400000000000000000e+02 -1.318862708104669577e-05
3.410000000000000000e+02 1.041249066368271486e-05
3.420000000000000000e+02 2.392603788499427260e-05
3.430000000000000000e+02 5.307253479068161067e-05
3.440000000000000000e+02 1.082620239916935208e-04
3.450000000000000000e+02 2.029252472966596441e-04
3.460000000000000000e+02 3.299486937184978948e-04
3.470000000000000000e+02 4.714231932378470046e-04
3.480000000000000000e+02 6.167317200425394014e-04
3.490000000000000000e+02 7.518126630155222900e-04
3.500000000000000000e+02 8.744207714986336347e-04
3.510000000000000000e+02 9.840063770068952637e-04
3.520000000000000000e+02 1.058640331560360996e-03
3.530000000000000000e+02 1.099898687622938385e-03
3.540000000000000000e+02 1.119721246013975421e-03
3.550000000000000000e+02 1.122187028086851822e-03
3.560000000000000000e+02 1.113685927212217054e-03
3.570000000000000000e+02 1.096097741520779979e-03
3.580000000000000000e+02 1.067677714811016750e-03
3.590000000000000000e+02 1.033830453294461767e-03
3.600000000000000000e+02 9.971998883638274244e-04
3.610000000000000000e+02 9.582925440495454516e-04
3.620000000000000000e+02 9.136970490749981785e-04
3.630000000000000000e+02 8.650695832066745711e-04
3.640000000000000000e+02 8.239551151997210948e-04
3.650000000000000000e+02 8.019111584895414644e-04
3.660000000000000000e+02 7.943622540650719949e-04
3.670000000000000000e+02 7.811396036412833650e-04
3.680000000000000000e+02 7.573328479772487411e-04
3.690000000000000000e+02 7.306866245711552419e-04
3.700000000000000000e+02 7.087490334546520804e-04
3.710000000000000000e+02 7.031669947086682674e-04
3.720000000000000000e+02 7.112543686234511307e-04
3.730000000000000000e+02 7.066983162388107073e-04
3.740000000000000000e+02 6.715723589198484321e-04
3.750000000000000000e+02 6.083412374397935028e-04
3.760000000000000000e+02 5.213358020803035911e-04
3.770000000000000000e+02 4.134008172072682922e-04
3.780000000000000000e+02 2.911465267488023935e-04
3.790000000000000000e+02 1.624576408999661747e-04
3.800000000000000000e+02 5.167902914580059813e-05
3.810000000000000000e+02 -2.774802190561580594e-05
3.820000000000000000e+02 -7.440599420650250144e-05
3.830000000000000000e+02 -1.035095039280083318e-04
3.840000000000000000e+02 -1.507429228816578549e-04
3.850000000000000000e+02 -2.206137417045798445e-04
3.860000000000000000e+02 -2.765371968622231768e-04
3.870000000000000000e+02 -3.007314414528166214e-04
3.880000000000000000e+02 -3.042216250578532138e-04
3.890000000000000000e+02 -2.979268392338755428e-04
3.900000000000000000e+02 -2.787191344630292247e-04
3.910000000000000000e+02 -2.402582440063576565e-04
3.920000000000000000e+02 -1.903107168878036899e-04
3.930000000000000000e+02 -1.504047420578972583e-04
