# XXZ chain with NNN perturbation
# L = 28, S_z^tot = 4, J = 1, Delta = 0.5, g = 0.10
# Time dependence of normalized spin current autocorrelation function
# tJ, C_sigma(t)

0.000000000000000000e+00 1.000000000000000000e+00
1.000000000000000000e+00 9.620782083100067883e-01
2.000000000000000000e+00 8.757268267062451317e-01
3.000000000000000000e+00 7.800646798426340567e-01
4.000000000000000000e+00 6.919896768630658945e-01
5.000000000000000000e+00 6.173016954475221141e-01
6.000000000000000000e+00 5.583536549738462584e-01
7.000000000000000000e+00 5.156629786350038769e-01
8.000000000000000000e+00 4.884965422855144790e-01
9.000000000000000000e+00 4.752342237059851704e-01
1.000000000000000000e+01 4.736129282003225804e-01
1.100000000000000000e+01 4.809468147203048161e-01
1.200000000000000000e+01 4.943984127642928050e-01
1.300000000000000000e+01 5.112992017065991490e-01
1.400000000000000000e+01 5.293234352211347860e-01
1.500000000000000000e+01 5.463320621597428373e-01
1.600000000000000000e+01 5.602731239449536549e-01
1.700000000000000000e+01 5.696458679859844887e-01
1.800000000000000000e+01 5.737336875050369489e-01
1.900000000000000000e+01 5.723407129720715636e-01
2.000000000000000000e+01 5.658039883695767935e-01
2.100000000000000000e+01 5.550082985783197920e-01
2.200000000000000000e+01 5.411693045613631403e-01
2.300000000000000000e+01 5.256826783303096828e-01
2.400000000000000000e+01 5.100025385798928612e-01
2.500000000000000000e+01 4.955085198430937976e-01
2.600000000000000000e+01 4.833569587764803832e-01
2.700000000000000000e+01 4.743795034926246990e-01
2.800000000000000000e+01 4.690236975147168419e-01
2.900000000000000000e+01 4.672910170955513753e-01
3.000000000000000000e+01 4.687539063327403888e-01
3.100000000000000000e+01 4.726759925262072892e-01
3.200000000000000000e+01 4.781392283961219403e-01
3.300000000000000000e+01 4.841296497055572190e-01
3.400000000000000000e+01 4.896397289521757235e-01
3.500000000000000000e+01 4.937679201118752581e-01
3.600000000000000000e+01 4.957503196105180199e-01
3.700000000000000000e+01 4.950705337550851959e-01
3.800000000000000000e+01 4.915926468981888786e-01
3.900000000000000000e+01 4.855825832421442612e-01
4.000000000000000000e+01 4.776160015820007376e-01
4.100000000000000000e+01 4.684738317066028945e-01
4.200000000000000000e+01 4.590026305101959081e-01
4.300000000000000000e+01 4.499610061448744425e-01
4.400000000000000000e+01 4.419744560825108470e-01
4.500000000000000000e+01 4.355255913571978721e-01
4.600000000000000000e+01 4.309267768435856572e-01
4.700000000000000000e+01 4.282868391819668052e-01
4.800000000000000000e+01 4.275283229302688781e-01
4.900000000000000000e+01 4.283984106800007852e-01
5.000000000000000000e+01 4.304655064138672160e-01
5.100000000000000000e+01 4.331606136633556203e-01
5.200000000000000000e+01 4.358776047520633856e-01
5.300000000000000000e+01 4.380170187580037511e-01
5.400000000000000000e+01 4.390583880401577876e-01
5.500000000000000000e+01 4.386593052827068573e-01
5.600000000000000000e+01 4.366708644608631174e-01
5.700000000000000000e+01 4.331379898134860018e-01
5.800000000000000000e+01 4.282828991099513205e-01
5.900000000000000000e+01 4.224905979169360504e-01
6.000000000000000000e+01 4.162484893711196898e-01
6.100000000000000000e+01 4.100537066636639749e-01
6.200000000000000000e+01 4.043773361634556696e-01
6.300000000000000000e+01 3.996178423024051019e-01
6.400000000000000000e+01 3.960300308079286458e-01
6.500000000000000000e+01 3.937001073838515830e-01
6.600000000000000000e+01 3.925694494352607311e-01
6.700000000000000000e+01 3.924542896861258900e-01
6.800000000000000000e+01 3.930835454803910389e-01
6.900000000000000000e+01 3.941115958648777062e-01
7.000000000000000000e+01 3.951535085559840232e-01
7.100000000000000000e+01 3.958530308974589351e-01
7.200000000000000000e+01 3.959355011638061028e-01
7.300000000000000000e+01 3.952450700146604712e-01
7.400000000000000000e+01 3.937505696610479888e-01
7.500000000000000000e+01 3.915050870167131047e-01
7.600000000000000000e+01 3.886157734827624388e-01
7.700000000000000000e+01 3.852484971270138114e-01
7.800000000000000000e+01 3.816428889363249199e-01
7.900000000000000000e+01 3.780569097345488627e-01
8.000000000000000000e+01 3.747128761179152057e-01
8.100000000000000000e+01 3.717889278967945188e-01
8.200000000000000000e+01 3.694028376483683984e-01
8.300000000000000000e+01 3.676081441480367196e-01
8.400000000000000000e+01 3.663820637478483744e-01
8.500000000000000000e+01 3.656603622720112079e-01
8.600000000000000000e+01 3.653462344961979635e-01
8.700000000000000000e+01 3.652761416041719889e-01
8.800000000000000000e+01 3.652659419021893061e-01
8.900000000000000000e+01 3.651499719904395813e-01
9.000000000000000000e+01 3.647727938602599029e-01
9.100000000000000000e+01 3.640151830095899044e-01
9.200000000000000000e+01 3.628059070602002167e-01
9.300000000000000000e+01 3.611417434617066879e-01
9.400000000000000000e+01 3.590949016710009434e-01
9.500000000000000000e+01 3.567659139570050209e-01
9.600000000000000000e+01 3.542741833712734212e-01
9.700000000000000000e+01 3.517574455196447736e-01
9.800000000000000000e+01 3.493538804567595801e-01
9.900000000000000000e+01 3.471833984468936096e-01
1.000000000000000000e+02 3.453145696718536994e-01
1.010000000000000000e+02 3.437779104215456516e-01
1.020000000000000000e+02 3.425759433163700352e-01
1.030000000000000000e+02 3.416625359993332722e-01
1.040000000000000000e+02 3.409936342906098039e-01
1.050000000000000000e+02 3.405212998067933539e-01
1.060000000000000000e+02 3.401333778249502893e-01
1.070000000000000000e+02 3.396928131397012329e-01
1.080000000000000000e+02 3.390928553948167057e-01
1.090000000000000000e+02 3.382611594827388823e-01
1.100000000000000000e+02 3.371599378809185810e-01
1.110000000000000000e+02 3.357767067305534314e-01
1.120000000000000000e+02 3.341492968635588201e-01
1.130000000000000000e+02 3.323834200408558592e-01
1.140000000000000000e+02 3.305778945860018969e-01
1.150000000000000000e+02 3.287638379718976767e-01
1.160000000000000000e+02 3.269640660041374103e-01
1.170000000000000000e+02 3.252323938310072715e-01
1.180000000000000000e+02 3.236307946643812161e-01
1.190000000000000000e+02 3.222012984229590260e-01
1.200000000000000000e+02 3.209625191589627335e-01
1.210000000000000000e+02 3.198961300530131502e-01
1.220000000000000000e+02 3.189647460841812387e-01
1.230000000000000000e+02 3.181505615073289550e-01
1.240000000000000000e+02 3.174275321764693514e-01
1.250000000000000000e+02 3.167374760560842106e-01
1.260000000000000000e+02 3.160146045692915906e-01
1.270000000000000000e+02 3.152161311645667596e-01
1.280000000000000000e+02 3.143182266438134254e-01
1.290000000000000000e+02 3.132884418782311275e-01
1.300000000000000000e+02 3.121255455297782810e-01
1.310000000000000000e+02 3.108693242397353451e-01
1.320000000000000000e+02 3.095234249544622229e-01
1.330000000000000000e+02 3.080772035377011275e-01
1.340000000000000000e+02 3.065483969467539538e-01
1.350000000000000000e+02 3.049745047028535327e-01
1.360000000000000000e+02 3.034057846205749365e-01
1.370000000000000000e+02 3.018872492042751210e-01
1.380000000000000000e+02 3.004710763483076086e-01
1.390000000000000000e+02 2.992004837506647141e-01
1.400000000000000000e+02 2.980837239841684361e-01
1.410000000000000000e+02 2.970958526880096429e-01
1.420000000000000000e+02 2.961854639672969469e-01
1.430000000000000000e+02 2.953142947874102808e-01
1.440000000000000000e+02 2.944786555900139047e-01
1.450000000000000000e+02 2.936803786822824724e-01
1.460000000000000000e+02 2.928916974934234752e-01
1.470000000000000000e+02 2.920485743876185536e-01
1.480000000000000000e+02 2.911011919564640560e-01
1.490000000000000000e+02 2.900442855588960533e-01
1.500000000000000000e+02 2.888956410461864799e-01
1.510000000000000000e+02 2.876582250059838697e-01
1.520000000000000000e+02 2.863205711202321258e-01
1.530000000000000000e+02 2.848932384982327815e-01
1.540000000000000000e+02 2.834219821397849781e-01
1.550000000000000000e+02 2.819447637489323477e-01
1.560000000000000000e+02 2.804900198912297915e-01
1.570000000000000000e+02 2.791039038336031175e-01
1.580000000000000000e+02 2.778496200325966670e-01
1.590000000000000000e+02 2.767601590819461221e-01
1.600000000000000000e+02 2.758030050670247091e-01
1.610000000000000000e+02 2.749239756513448540e-01
1.620000000000000000e+02 2.740804608129425723e-01
1.630000000000000000e+02 2.732581269582883277e-01
1.640000000000000000e+02 2.724402755007906407e-01
1.650000000000000000e+02 2.715762317261255498e-01
1.660000000000000000e+02 2.706335388948871157e-01
1.670000000000000000e+02 2.696220465033359881e-01
1.680000000000000000e+02 2.685610464313682999e-01
1.690000000000000000e+02 2.674462100252493202e-01
1.700000000000000000e+02 2.662691943789982640e-01
1.710000000000000000e+02 2.650660518021005219e-01
1.720000000000000000e+02 2.638878269492588302e-01
1.730000000000000000e+02 2.627640028913732495e-01
1.740000000000000000e+02 2.617031014645465059e-01
1.750000000000000000e+02 2.606905492272308944e-01
1.760000000000000000e+02 2.597046438047609374e-01
1.770000000000000000e+02 2.587442521439883847e-01
1.780000000000000000e+02 2.578191006293050758e-01
1.790000000000000000e+02 2.569357412939797802e-01
1.800000000000000000e+02 2.560778149592273789e-01
1.810000000000000000e+02 2.552237609948180830e-01
1.820000000000000000e+02 2.543715605160640214e-01
1.830000000000000000e+02 2.534983058093067121e-01
1.840000000000000000e+02 2.525733982447275205e-01
1.850000000000000000e+02 2.515842757355182258e-01
1.860000000000000000e+02 2.505343736457774084e-01
1.870000000000000000e+02 2.494491870860766070e-01
1.880000000000000000e+02 2.483761497934287577e-01
1.890000000000000000e+02 2.473567225898776756e-01
1.900000000000000000e+02 2.463926728763110308e-01
1.910000000000000000e+02 2.454590128548964356e-01
1.920000000000000000e+02 2.445458016692812486e-01
1.930000000000000000e+02 2.436620321378190346e-01
1.940000000000000000e+02 2.428064744789092677e-01
1.950000000000000000e+02 2.419682107107395952e-01
1.960000000000000000e+02 2.411409102080436517e-01
1.970000000000000000e+02 2.403318288419392657e-01
1.980000000000000000e+02 2.395383859562052187e-01
1.990000000000000000e+02 2.387282371542587822e-01
2.000000000000000000e+02 2.378856796193884737e-01
2.010000000000000000e+02 2.370250836327680299e-01
2.020000000000000000e+02 2.361581686809014757e-01
2.030000000000000000e+02 2.353078776346557710e-01
2.040000000000000000e+02 2.344784072964286314e-01
2.050000000000000000e+02 2.336407588830780313e-01
2.060000000000000000e+02 2.328008916295563058e-01
2.070000000000000000e+02 2.320019869969323911e-01
2.080000000000000000e+02 2.312422773411240140e-01
2.090000000000000000e+02 2.304738147567846063e-01
2.100000000000000000e+02 2.296826840392899582e-01
2.110000000000000000e+02 2.288893961268227417e-01
2.120000000000000000e+02 2.280981230071704446e-01
2.130000000000000000e+02 2.272995446478110471e-01
2.140000000000000000e+02 2.264865770340454831e-01
2.150000000000000000e+02 2.256684053361265319e-01
2.160000000000000000e+02 2.248819944241022550e-01
2.170000000000000000e+02 2.241655162092096865e-01
2.180000000000000000e+02 2.235129160459091713e-01
2.190000000000000000e+02 2.228948797407958315e-01
2.200000000000000000e+02 2.223158724914450213e-01
2.210000000000000000e+02 2.217832701671892948e-01
2.220000000000000000e+02 2.212539128013118472e-01
2.230000000000000000e+02 2.206717431663595685e-01
2.240000000000000000e+02 2.200240235956765211e-01
2.250000000000000000e+02 2.193216005392486234e-01
2.260000000000000000e+02 2.185682041054201885e-01
2.270000000000000000e+02 2.177619888584040597e-01
2.280000000000000000e+02 2.169093932418533210e-01
2.290000000000000000e+02 2.160362286153019729e-01
2.300000000000000000e+02 2.151774130807685703e-01
2.310000000000000000e+02 2.143658950528733453e-01
2.320000000000000000e+02 2.136058495152729775e-01
2.330000000000000000e+02 2.128790150374090528e-01
2.340000000000000000e+02 2.121838669755731765e-01
2.350000000000000000e+02 2.115259486973448955e-01
2.360000000000000000e+02 2.108963518265798975e-01
2.370000000000000000e+02 2.102813432440824581e-01
2.380000000000000000e+02 2.096703746058553031e-01
2.390000000000000000e+02 2.090513650352621988e-01
2.400000000000000000e+02 2.084179928891726485e-01
2.410000000000000000e+02 2.077663584857020185e-01
2.420000000000000000e+02 2.071036744290939147e-01
2.430000000000000000e+02 2.064343467938837551e-01
2.440000000000000000e+02 2.057435263598245134e-01
2.450000000000000000e+02 2.050261702967032529e-01
2.460000000000000000e+02 2.043038068762616510e-01
2.470000000000000000e+02 2.036039568226653274e-01
2.480000000000000000e+02 2.029331642497198829e-01
2.490000000000000000e+02 2.022827701248074705e-01
2.500000000000000000e+02 2.016517287814196813e-01
2.510000000000000000e+02 2.010336138496942870e-01
2.520000000000000000e+02 2.004011019493560919e-01
2.530000000000000000e+02 1.997433437179158555e-01
2.540000000000000000e+02 1.990743104507048389e-01
2.550000000000000000e+02 1.984132115005461661e-01
2.560000000000000000e+02 1.977709704352156039e-01
2.570000000000000000e+02 1.971516898281986396e-01
2.580000000000000000e+02 1.965561111177391018e-01
2.590000000000000000e+02 1.959739906685376565e-01
2.600000000000000000e+02 1.954071419338163085e-01
2.610000000000000000e+02 1.948473354012605074e-01
2.620000000000000000e+02 1.942605432180887493e-01
2.630000000000000000e+02 1.936429411695163860e-01
2.640000000000000000e+02 1.930100356076444312e-01
2.650000000000000000e+02 1.923632577095803209e-01
2.660000000000000000e+02 1.916977454229631395e-01
2.670000000000000000e+02 1.910020302885177546e-01
2.680000000000000000e+02 1.902744105891859827e-01
2.690000000000000000e+02 1.895300005468845417e-01
2.700000000000000000e+02 1.887857678478680745e-01
2.710000000000000000e+02 1.880551153138455833e-01
2.720000000000000000e+02 1.873489950822760375e-01
2.730000000000000000e+02 1.866840988528269130e-01
2.740000000000000000e+02 1.860833192791655488e-01
2.750000000000000000e+02 1.855586392305125232e-01
2.760000000000000000e+02 1.850922960536758866e-01
2.770000000000000000e+02 1.846431803497183555e-01
2.780000000000000000e+02 1.841779620784502192e-01
2.790000000000000000e+02 1.836869515285892707e-01
2.800000000000000000e+02 1.831634760839803144e-01
2.810000000000000000e+02 1.826003211885407485e-01
2.820000000000000000e+02 1.820039199176609890e-01
2.830000000000000000e+02 1.813760699620977357e-01
2.840000000000000000e+02 1.807147456557422482e-01
2.850000000000000000e+02 1.800364381027507454e-01
2.860000000000000000e+02 1.793652157748569509e-01
2.870000000000000000e+02 1.787268100580988450e-01
2.880000000000000000e+02 1.781288883035882231e-01
2.890000000000000000e+02 1.775484170235333004e-01
2.900000000000000000e+02 1.769608289986200345e-01
2.910000000000000000e+02 1.763616480542762044e-01
2.920000000000000000e+02 1.757631852346309698e-01
2.930000000000000000e+02 1.751686727060764170e-01
2.940000000000000000e+02 1.745718623733507335e-01
2.950000000000000000e+02 1.739799672145337373e-01
2.960000000000000000e+02 1.734128303290672357e-01
2.970000000000000000e+02 1.728902846908715318e-01
2.980000000000000000e+02 1.724155608142752816e-01
2.990000000000000000e+02 1.719747380268149828e-01
3.000000000000000000e+02 1.715430264600807664e-01
3.010000000000000000e+02 1.710823549736689708e-01
3.020000000000000000e+02 1.705700903726439510e-01
3.030000000000000000e+02 1.700077015373523126e-01
3.040000000000000000e+02 1.694133804561796242e-01
3.050000000000000000e+02 1.688220389116036613e-01
3.060000000000000000e+02 1.682532943042484297e-01
3.070000000000000000e+02 1.676922236754483653e-01
3.080000000000000000e+02 1.671362234241391687e-01
3.090000000000000000e+02 1.666104968049400836e-01
3.100000000000000000e+02 1.661176975360339203e-01
3.110000000000000000e+02 1.656123352395875714e-01
3.120000000000000000e+02 1.650625797299326014e-01
3.130000000000000000e+02 1.644907383269721690e-01
3.140000000000000000e+02 1.639218429246559749e-01
3.150000000000000000e+02 1.633670263378340926e-01
3.160000000000000000e+02 1.628300275116209561e-01
3.170000000000000000e+02 1.623080529710691777e-01
3.180000000000000000e+02 1.618014981482467363e-01
3.190000000000000000e+02 1.613121907407086830e-01
3.200000000000000000e+02 1.608215490698961525e-01
3.210000000000000000e+02 1.603098498719304488e-01
3.220000000000000000e+02 1.597808329728782895e-01
3.230000000000000000e+02 1.592400814067180814e-01
3.240000000000000000e+02 1.586924485021074249e-01
3.250000000000000000e+02 1.581521213995033814e-01
3.260000000000000000e+02 1.576424225527016665e-01
3.270000000000000000e+02 1.571799443124781148e-01
3.280000000000000000e+02 1.567642539995085793e-01
3.290000000000000000e+02 1.563779348671932856e-01
3.300000000000000000e+02 1.559941891643328860e-01
3.310000000000000000e+02 1.555946572853318388e-01
3.320000000000000000e+02 1.551657673770831802e-01
3.330000000000000000e+02 1.546925861160570459e-01
3.340000000000000000e+02 1.541740460659080936e-01
3.350000000000000000e+02 1.536193024542898966e-01
3.360000000000000000e+02 1.530451809416823739e-01
3.370000000000000000e+02 1.524768350929672778e-01
3.380000000000000000e+02 1.519413896450506896e-01
3.390000000000000000e+02 1.514502907684795452e-01
3.400000000000000000e+02 1.509973811423040435e-01
3.410000000000000000e+02 1.505661290400668040e-01
3.420000000000000000e+02 1.501329306148367071e-01
3.430000000000000000e+02 1.496775483929172756e-01
3.440000000000000000e+02 1.492085311060537545e-01
3.450000000000000000e+02 1.487577334314109934e-01
3.460000000000000000e+02 1.483302908884639171e-01
3.470000000000000000e+02 1.479149756418910167e-01
3.480000000000000000e+02 1.475192733875294870e-01
3.490000000000000000e+02 1.471477596908175589e-01
3.500000000000000000e+02 1.467961501006966318e-01
3.510000000000000000e+02 1.464462637084092689e-01
3.520000000000000000e+02 1.460877804231718868e-01
3.530000000000000000e+02 1.457283833737437750e-01
3.540000000000000000e+02 1.453552499955567678e-01
3.550000000000000000e+02 1.449449712716040506e-01
3.560000000000000000e+02 1.444956204173746539e-01
3.570000000000000000e+02 1.440273493411159400e-01
3.580000000000000000e+02 1.435617711662754425e-01
3.590000000000000000e+02 1.431078548795187144e-01
3.600000000000000000e+02 1.426583428424079425e-01
3.610000000000000000e+02 1.422086041885338992e-01
3.620000000000000000e+02 1.417691838706322260e-01
3.630000000000000000e+02 1.413564689561655763e-01
3.640000000000000000e+02 1.409735286275246025e-01
3.650000000000000000e+02 1.406105224826447453e-01
3.660000000000000000e+02 1.402563475709472651e-01
3.670000000000000000e+02 1.399191498478138118e-01
3.680000000000000000e+02 1.396108889195104286e-01
3.690000000000000000e+02 1.393131767507656826e-01
3.700000000000000000e+02 1.389970016080299686e-01
3.710000000000000000e+02 1.386523311679517811e-01
3.720000000000000000e+02 1.382835455101403821e-01
3.730000000000000000e+02 1.378848496432502069e-01
3.740000000000000000e+02 1.374458849927139570e-01
3.750000000000000000e+02 1.369542869883030034e-01
3.760000000000000000e+02 1.364160546931630635e-01
3.770000000000000000e+02 1.358695592557411236e-01
3.780000000000000000e+02 1.353516608345012584e-01
3.790000000000000000e+02 1.348886816007398848e-01
3.800000000000000000e+02 1.344848921521470675e-01
3.810000000000000000e+02 1.341256690866520773e-01
3.820000000000000000e+02 1.337979257145131273e-01
3.830000000000000000e+02 1.334836511931135894e-01
3.840000000000000000e+02 1.331693077579506057e-01
3.850000000000000000e+02 1.328550730036778815e-01
3.860000000000000000e+02 1.325386455239592753e-01
3.870000000000000000e+02 1.322151126811861865e-01
3.880000000000000000e+02 1.318830366160848866e-01
3.890000000000000000e+02 1.315474832326291865e-01
3.900000000000000000e+02 1.312212082756007425e-01
3.910000000000000000e+02 1.309147354317667378e-01
3.920000000000000000e+02 1.306211357793254368e-01
3.930000000000000000e+02 1.303163988295160114e-01
3.940000000000000000e+02 1.299945533017033417e-01
3.950000000000000000e+02 1.296598025548819921e-01
