# Heisenberg S=1/2 chain with anisotropy 
# L=32, J=1.0 , Delta=1.5, Delta_{2}=0.4, deltaJ=0.0, deltah=0.0
# Dynamical diffusion D(omega)
# Frequency omega/J, Dynamical diffusion D(omega)

 0.00000 0.26872
 0.00100 0.26872
 0.00200 0.26872
 0.00300 0.26872
 0.00400 0.26880
 0.00500 0.26892
 0.00600 0.26912
 0.00700 0.26932
 0.00800 0.26952
 0.00900 0.26972
 0.01000 0.26988
 0.01100 0.27008
 0.01200 0.27032
 0.01300 0.27064
 0.01400 0.27100
 0.01500 0.27140
 0.01600 0.27180
 0.01700 0.27220
 0.01800 0.27256
 0.01900 0.27296
 0.02000 0.27340
 0.02100 0.27392
 0.02200 0.27448
 0.02300 0.27508
 0.02400 0.27568
 0.02500 0.27628
 0.02600 0.27684
 0.02700 0.27744
 0.02800 0.27804
 0.02900 0.27876
 0.03000 0.27952
 0.03100 0.28032
 0.03200 0.28108
 0.03300 0.28188
 0.03400 0.28260
 0.03500 0.28336
 0.03600 0.28416
 0.03700 0.28504
 0.03800 0.28600
 0.03900 0.28700
 0.04000 0.28800
 0.04100 0.28892
 0.04200 0.28984
 0.04300 0.29076
 0.04400 0.29176
 0.04500 0.29280
 0.04600 0.29392
 0.04700 0.29508
 0.04800 0.29620
 0.04900 0.29736
 0.05000 0.29844
 0.05100 0.29952
 0.05200 0.30068
 0.05300 0.30188
 0.05400 0.30316
 0.05500 0.30452
 0.05600 0.30588
 0.05700 0.30720
 0.05800 0.30848
 0.05900 0.30976
 0.06000 0.31104
 0.06100 0.31244
 0.06200 0.31392
 0.06300 0.31544
 0.06400 0.31700
 0.06500 0.31848
 0.06600 0.31992
 0.06700 0.32140
 0.06800 0.32288
 0.06900 0.32444
 0.07000 0.32612
 0.07100 0.32788
 0.07200 0.32968
 0.07300 0.33140
 0.07400 0.33308
 0.07500 0.33476
 0.07600 0.33644
 0.07700 0.33820
 0.07800 0.34008
 0.07900 0.34200
 0.08000 0.34396
 0.08100 0.34588
 0.08200 0.34772
 0.08300 0.34952
 0.08400 0.35132
 0.08500 0.35320
 0.08600 0.35520
 0.08700 0.35732
 0.08800 0.35944
 0.08900 0.36152
 0.09000 0.36356
 0.09100 0.36552
 0.09200 0.36748
 0.09300 0.36952
 0.09400 0.37172
 0.09500 0.37404
 0.09600 0.37636
 0.09700 0.37864
 0.09800 0.38088
 0.09900 0.38300
 0.10000 0.38516
 0.10100 0.38736
 0.10200 0.38972
 0.10300 0.39220
 0.10400 0.39472
 0.10500 0.39720
 0.10600 0.39960
 0.10700 0.40192
 0.10800 0.40420
 0.10900 0.40656
 0.11000 0.40904
 0.11100 0.41168
 0.11200 0.41436
 0.11300 0.41700
 0.11400 0.41956
 0.11500 0.42200
 0.11600 0.42444
 0.11700 0.42692
 0.11800 0.42956
 0.11900 0.43232
 0.12000 0.43520
 0.12100 0.43804
 0.12200 0.44076
 0.12300 0.44340
 0.12400 0.44596
 0.12500 0.44856
 0.12600 0.45136
 0.12700 0.45432
 0.12800 0.45736
 0.12900 0.46040
 0.13000 0.46336
 0.13100 0.46616
 0.13200 0.46892
 0.13300 0.47168
 0.13400 0.47464
 0.13500 0.47776
 0.13600 0.48100
 0.13700 0.48428
 0.13800 0.48740
 0.13900 0.49040
 0.14000 0.49328
 0.14100 0.49620
 0.14200 0.49928
 0.14300 0.50252
 0.14400 0.50588
 0.14500 0.50928
 0.14600 0.51256
 0.14700 0.51564
 0.14800 0.51864
 0.14900 0.52160
 0.15000 0.52472
 0.15100 0.52808
 0.15200 0.53156
 0.15300 0.53508
 0.15400 0.53848
 0.15500 0.54172
 0.15600 0.54484
 0.15700 0.54792
 0.15800 0.55120
 0.15900 0.55468
 0.16000 0.55832
 0.16100 0.56208
 0.16200 0.56572
 0.16300 0.56920
 0.16400 0.57248
 0.16500 0.57576
 0.16600 0.57916
 0.16700 0.58280
 0.16800 0.58660
 0.16900 0.59048
 0.17000 0.59428
 0.17100 0.59788
 0.17200 0.60124
 0.17300 0.60456
 0.17400 0.60796
 0.17500 0.61160
 0.17600 0.61540
 0.17700 0.61932
 0.17800 0.62312
 0.17900 0.62668
 0.18000 0.63004
 0.18100 0.63328
 0.18200 0.63664
 0.18300 0.64016
 0.18400 0.64396
 0.18500 0.64780
 0.18600 0.65160
 0.18700 0.65516
 0.18800 0.65848
 0.18900 0.66168
 0.19000 0.66492
 0.19100 0.66836
 0.19200 0.67200
 0.19300 0.67576
 0.19400 0.67948
 0.19500 0.68292
 0.19600 0.68608
 0.19700 0.68904
 0.19800 0.69204
 0.19900 0.69524
 0.20000 0.69868
 0.20100 0.70224
 0.20200 0.70572
 0.20300 0.70892
 0.20400 0.71184
 0.20500 0.71456
 0.20600 0.71724
 0.20700 0.72012
 0.20800 0.72324
 0.20900 0.72652
 0.21000 0.72972
 0.21100 0.73268
 0.21200 0.73532
 0.21300 0.73772
 0.21400 0.74004
 0.21500 0.74252
 0.21600 0.74524
 0.21700 0.74804
 0.21800 0.75080
 0.21900 0.75328
 0.22000 0.75540
 0.22100 0.75724
 0.22200 0.75896
 0.22300 0.76076
 0.22400 0.76276
 0.22500 0.76492
 0.22600 0.76700
 0.22700 0.76884
 0.22800 0.77032
 0.22900 0.77148
 0.23000 0.77252
 0.23100 0.77364
 0.23200 0.77496
 0.23300 0.77648
 0.23400 0.77792
 0.23500 0.77916
 0.23600 0.78004
 0.23700 0.78056
 0.23800 0.78096
 0.23900 0.78140
 0.24000 0.78208
 0.24100 0.78288
 0.24200 0.78368
 0.24300 0.78428
 0.24400 0.78452
 0.24500 0.78440
 0.24600 0.78416
 0.24700 0.78392
 0.24800 0.78388
 0.24900 0.78404
 0.25000 0.78420
 0.25100 0.78420
 0.25200 0.78388
 0.25300 0.78324
 0.25400 0.78240
 0.25500 0.78160
 0.25600 0.78104
 0.25700 0.78064
 0.25800 0.78028
 0.25900 0.77984
 0.26000 0.77912
 0.26100 0.77808
 0.26200 0.77688
 0.26300 0.77568
 0.26400 0.77468
 0.26500 0.77392
 0.26600 0.77328
 0.26700 0.77252
 0.26800 0.77156
 0.26900 0.77028
 0.27000 0.76884
 0.27100 0.76744
 0.27200 0.76616
 0.27300 0.76516
 0.27400 0.76432
 0.27500 0.76344
 0.27600 0.76236
 0.27700 0.76104
 0.27800 0.75956
 0.27900 0.75808
 0.28000 0.75676
 0.28100 0.75564
 0.28200 0.75472
 0.28300 0.75384
 0.28400 0.75276
 0.28500 0.75148
 0.28600 0.75004
 0.28700 0.74860
 0.28800 0.74728
 0.28900 0.74616
 0.29000 0.74528
 0.29100 0.74444
 0.29200 0.74348
 0.29300 0.74232
 0.29400 0.74100
 0.29500 0.73960
 0.29600 0.73836
 0.29700 0.73736
 0.29800 0.73656
 0.29900 0.73588
 0.30000 0.73512
 0.30100 0.73420
 0.30200 0.73308
 0.30300 0.73188
 0.30400 0.73076
 0.30500 0.72988
 0.30600 0.72920
 0.30700 0.72864
 0.30800 0.72804
 0.30900 0.72732
 0.31000 0.72644
 0.31100 0.72544
 0.31200 0.72452
 0.31300 0.72376
 0.31400 0.72324
 0.31500 0.72288
 0.31600 0.72256
 0.31700 0.72208
 0.31800 0.72152
 0.31900 0.72080
 0.32000 0.72016
 0.32100 0.71964
 0.32200 0.71936
 0.32300 0.71920
 0.32400 0.71912
 0.32500 0.71892
 0.32600 0.71860
 0.32700 0.71816
 0.32800 0.71768
 0.32900 0.71732
 0.33000 0.71720
 0.33100 0.71720
 0.33200 0.71732
 0.33300 0.71740
 0.33400 0.71732
 0.33500 0.71712
 0.33600 0.71688
 0.33700 0.71676
 0.33800 0.71676
 0.33900 0.71696
 0.34000 0.71724
 0.34100 0.71748
 0.34200 0.71760
 0.34300 0.71756
 0.34400 0.71748
 0.34500 0.71740
 0.34600 0.71752
 0.34700 0.71784
 0.34800 0.71824
 0.34900 0.71868
 0.35000 0.71904
 0.35100 0.71928
 0.35200 0.71944
 0.35300 0.71960
 0.35400 0.71992
 0.35500 0.72036
 0.35600 0.72092
 0.35700 0.72152
 0.35800 0.72200
 0.35900 0.72236
 0.36000 0.72256
 0.36100 0.72276
 0.36200 0.72308
 0.36300 0.72352
 0.36400 0.72412
 0.36500 0.72476
 0.36600 0.72540
 0.36700 0.72588
 0.36800 0.72628
 0.36900 0.72660
 0.37000 0.72704
 0.37100 0.72760
 0.37200 0.72832
 0.37300 0.72912
 0.37400 0.72988
 0.37500 0.73056
 0.37600 0.73108
 0.37700 0.73156
 0.37800 0.73208
 0.37900 0.73272
 0.38000 0.73352
 0.38100 0.73444
 0.38200 0.73536
 0.38300 0.73620
 0.38400 0.73688
 0.38500 0.73748
 0.38600 0.73804
 0.38700 0.73872
 0.38800 0.73956
 0.38900 0.74052
 0.39000 0.74152
 0.39100 0.74244
 0.39200 0.74324
 0.39300 0.74388
 0.39400 0.74448
 0.39500 0.74516
 0.39600 0.74600
 0.39700 0.74696
 0.39800 0.74796
 0.39900 0.74892
 0.40000 0.74980
 0.40100 0.75048
 0.40200 0.75112
 0.40300 0.75184
 0.40400 0.75268
 0.40500 0.75364
 0.40600 0.75468
 0.40700 0.75572
 0.40800 0.75660
 0.40900 0.75736
 0.41000 0.75800
 0.41100 0.75864
 0.41200 0.75940
 0.41300 0.76032
 0.41400 0.76136
 0.41500 0.76240
 0.41600 0.76332
 0.41700 0.76412
 0.41800 0.76476
 0.41900 0.76544
 0.42000 0.76616
 0.42100 0.76708
 0.42200 0.76812
 0.42300 0.76916
 0.42400 0.77016
 0.42500 0.77096
 0.42600 0.77164
 0.42700 0.77224
 0.42800 0.77292
 0.42900 0.77372
 0.43000 0.77468
 0.43100 0.77568
 0.43200 0.77664
 0.43300 0.77744
 0.43400 0.77808
 0.43500 0.77864
 0.43600 0.77924
 0.43700 0.77996
 0.43800 0.78080
 0.43900 0.78172
 0.44000 0.78260
 0.44100 0.78336
 0.44200 0.78392
 0.44300 0.78436
 0.44400 0.78484
 0.44500 0.78544
 0.44600 0.78620
 0.44700 0.78712
 0.44800 0.78800
 0.44900 0.78876
 0.45000 0.78932
 0.45100 0.78980
 0.45200 0.79020
 0.45300 0.79072
 0.45400 0.79140
 0.45500 0.79224
 0.45600 0.79304
 0.45700 0.79376
 0.45800 0.79428
 0.45900 0.79460
 0.46000 0.79488
 0.46100 0.79524
 0.46200 0.79576
 0.46300 0.79640
 0.46400 0.79708
 0.46500 0.79772
 0.46600 0.79816
 0.46700 0.79844
 0.46800 0.79864
 0.46900 0.79888
 0.47000 0.79928
 0.47100 0.79984
 0.47200 0.80048
 0.47300 0.80108
 0.47400 0.80148
 0.47500 0.80168
 0.47600 0.80176
 0.47700 0.80188
 0.47800 0.80216
 0.47900 0.80260
 0.48000 0.80312
 0.48100 0.80364
 0.48200 0.80396
 0.48300 0.80412
 0.48400 0.80412
 0.48500 0.80412
 0.48600 0.80428
 0.48700 0.80456
 0.48800 0.80496
 0.48900 0.80540
 0.49000 0.80568
 0.49100 0.80572
 0.49200 0.80564
 0.49300 0.80552
 0.49400 0.80552
 0.49500 0.80568
 0.49600 0.80600
 0.49700 0.80636
 0.49800 0.80664
 0.49900 0.80668
 0.50000 0.80656
 0.50100 0.80640
 0.50200 0.80628
 0.50300 0.80632
 0.50400 0.80652
 0.50500 0.80676
 0.50600 0.80692
 0.50700 0.80688
 0.50800 0.80664
 0.50900 0.80628
 0.51000 0.80600
 0.51100 0.80592
 0.51200 0.80596
 0.51300 0.80616
 0.51400 0.80628
 0.51500 0.80624
 0.51600 0.80604
 0.51700 0.80568
 0.51800 0.80536
 0.51900 0.80516
 0.52000 0.80516
 0.52100 0.80524
 0.52200 0.80528
 0.52300 0.80516
 0.52400 0.80484
 0.52500 0.80436
 0.52600 0.80384
 0.52700 0.80344
 0.52800 0.80324
 0.52900 0.80320
 0.53000 0.80312
 0.53100 0.80296
 0.53200 0.80252
 0.53300 0.80196
 0.53400 0.80136
 0.53500 0.80084
 0.53600 0.80052
 0.53700 0.80040
 0.53800 0.80028
 0.53900 0.80004
 0.54000 0.79964
 0.54100 0.79900
 0.54200 0.79832
 0.54300 0.79768
 0.54400 0.79724
 0.54500 0.79696
 0.54600 0.79680
 0.54700 0.79656
 0.54800 0.79612
 0.54900 0.79552
 0.55000 0.79480
 0.55100 0.79416
 0.55200 0.79372
 0.55300 0.79344
 0.55400 0.79328
 0.55500 0.79312
 0.55600 0.79276
 0.55700 0.79220
 0.55800 0.79148
 0.55900 0.79076
 0.56000 0.79020
 0.56100 0.78980
 0.56200 0.78956
 0.56300 0.78932
 0.56400 0.78888
 0.56500 0.78828
 0.56600 0.78748
 0.56700 0.78668
 0.56800 0.78596
 0.56900 0.78552
 0.57000 0.78520
 0.57100 0.78496
 0.57200 0.78456
 0.57300 0.78400
 0.57400 0.78328
 0.57500 0.78248
 0.57600 0.78180
 0.57700 0.78132
 0.57800 0.78108
 0.57900 0.78088
 0.58000 0.78064
 0.58100 0.78016
 0.58200 0.77952
 0.58300 0.77876
 0.58400 0.77808
 0.58500 0.77760
 0.58600 0.77728
 0.58700 0.77708
 0.58800 0.77680
 0.58900 0.77636
 0.59000 0.77568
 0.59100 0.77488
 0.59200 0.77412
 0.59300 0.77352
 0.59400 0.77312
 0.59500 0.77288
 0.59600 0.77260
 0.59700 0.77216
 0.59800 0.77148
 0.59900 0.77064
 0.60000 0.76980
 0.60100 0.76912
 0.60200 0.76868
 0.60300 0.76840
 0.60400 0.76816
 0.60500 0.76776
 0.60600 0.76712
 0.60700 0.76632
 0.60800 0.76544
 0.60900 0.76468
 0.61000 0.76416
 0.61100 0.76384
 0.61200 0.76360
 0.61300 0.76324
 0.61400 0.76268
 0.61500 0.76188
 0.61600 0.76100
 0.61700 0.76020
 0.61800 0.75964
 0.61900 0.75928
 0.62000 0.75904
 0.62100 0.75872
 0.62200 0.75812
 0.62300 0.75728
 0.62400 0.75632
 0.62500 0.75536
 0.62600 0.75464
 0.62700 0.75420
 0.62800 0.75392
 0.62900 0.75356
 0.63000 0.75304
 0.63100 0.75228
 0.63200 0.75132
 0.63300 0.75036
 0.63400 0.74964
 0.63500 0.74920
 0.63600 0.74900
 0.63700 0.74876
 0.63800 0.74836
 0.63900 0.74768
 0.64000 0.74676
 0.64100 0.74580
 0.64200 0.74504
 0.64300 0.74452
 0.64400 0.74424
 0.64500 0.74400
 0.64600 0.74360
 0.64700 0.74288
 0.64800 0.74196
 0.64900 0.74092
 0.65000 0.74004
 0.65100 0.73948
 0.65200 0.73912
 0.65300 0.73892
 0.65400 0.73852
 0.65500 0.73788
 0.65600 0.73692
 0.65700 0.73584
 0.65800 0.73488
 0.65900 0.73420
 0.66000 0.73384
 0.66100 0.73360
 0.66200 0.73328
 0.66300 0.73268
 0.66400 0.73176
 0.66500 0.73068
 0.66600 0.72964
 0.66700 0.72888
 0.66800 0.72844
 0.66900 0.72820
 0.67000 0.72792
 0.67100 0.72732
 0.67200 0.72644
 0.67300 0.72536
 0.67400 0.72428
 0.67500 0.72348
 0.67600 0.72300
 0.67700 0.72280
 0.67800 0.72256
 0.67900 0.72212
 0.68000 0.72132
 0.68100 0.72024
 0.68200 0.71916
 0.68300 0.71832
 0.68400 0.71780
 0.68500 0.71752
 0.68600 0.71732
 0.68700 0.71688
 0.68800 0.71608
 0.68900 0.71496
 0.69000 0.71376
 0.69100 0.71272
 0.69200 0.71208
 0.69300 0.71172
 0.69400 0.71148
 0.69500 0.71108
 0.69600 0.71028
 0.69700 0.70916
 0.69800 0.70796
 0.69900 0.70692
 0.70000 0.70624
 0.70100 0.70592
 0.70200 0.70576
 0.70300 0.70548
 0.70400 0.70480
 0.70500 0.70376
 0.70600 0.70256
 0.70700 0.70148
 0.70800 0.70072
 0.70900 0.70036
 0.71000 0.70020
 0.71100 0.69992
 0.71200 0.69928
 0.71300 0.69828
 0.71400 0.69708
 0.71500 0.69596
 0.71600 0.69512
 0.71700 0.69472
 0.71800 0.69452
 0.71900 0.69428
 0.72000 0.69368
 0.72100 0.69268
 0.72200 0.69136
 0.72300 0.69012
 0.72400 0.68912
 0.72500 0.68856
 0.72600 0.68824
 0.72700 0.68792
 0.72800 0.68732
 0.72900 0.68632
 0.73000 0.68500
 0.73100 0.68368
 0.73200 0.68264
 0.73300 0.68200
 0.73400 0.68176
 0.73500 0.68152
 0.73600 0.68104
 0.73700 0.68012
 0.73800 0.67888
 0.73900 0.67760
 0.74000 0.67652
 0.74100 0.67588
 0.74200 0.67560
 0.74300 0.67536
 0.74400 0.67492
 0.74500 0.67404
 0.74600 0.67276
 0.74700 0.67136
 0.74800 0.67016
 0.74900 0.66940
 0.75000 0.66900
 0.75100 0.66880
 0.75200 0.66836
 0.75300 0.66756
 0.75400 0.66632
 0.75500 0.66488
 0.75600 0.66360
 0.75700 0.66272
 0.75800 0.66224
 0.75900 0.66192
 0.76000 0.66148
 0.76100 0.66064
 0.76200 0.65936
 0.76300 0.65788
 0.76400 0.65656
 0.76500 0.65556
 0.76600 0.65504
 0.76700 0.65476
 0.76800 0.65436
 0.76900 0.65364
 0.77000 0.65248
 0.77100 0.65104
 0.77200 0.64972
 0.77300 0.64872
 0.77400 0.64816
 0.77500 0.64784
 0.77600 0.64752
 0.77700 0.64684
 0.77800 0.64572
 0.77900 0.64432
 0.78000 0.64296
 0.78100 0.64192
 0.78200 0.64132
 0.78300 0.64104
 0.78400 0.64076
 0.78500 0.64020
 0.78600 0.63916
 0.78700 0.63784
 0.78800 0.63644
 0.78900 0.63528
 0.79000 0.63456
 0.79100 0.63416
 0.79200 0.63380
 0.79300 0.63316
 0.79400 0.63208
 0.79500 0.63064
 0.79600 0.62916
 0.79700 0.62788
 0.79800 0.62700
 0.79900 0.62652
 0.80000 0.62612
 0.80100 0.62548
 0.80200 0.62448
 0.80300 0.62308
 0.80400 0.62156
 0.80500 0.62024
 0.80600 0.61936
 0.80700 0.61884
 0.80800 0.61848
 0.80900 0.61796
 0.81000 0.61704
 0.81100 0.61576
 0.81200 0.61428
 0.81300 0.61296
 0.81400 0.61204
 0.81500 0.61148
 0.81600 0.61108
 0.81700 0.61060
 0.81800 0.60972
 0.81900 0.60848
 0.82000 0.60704
 0.82100 0.60568
 0.82200 0.60468
 0.82300 0.60408
 0.82400 0.60368
 0.82500 0.60320
 0.82600 0.60240
 0.82700 0.60120
 0.82800 0.59980
 0.82900 0.59844
 0.83000 0.59736
 0.83100 0.59668
 0.83200 0.59624
 0.83300 0.59576
 0.83400 0.59496
 0.83500 0.59376
 0.83600 0.59236
 0.83700 0.59092
 0.83800 0.58976
 0.83900 0.58900
 0.84000 0.58848
 0.84100 0.58800
 0.84200 0.58728
 0.84300 0.58616
 0.84400 0.58476
 0.84500 0.58336
 0.84600 0.58220
 0.84700 0.58140
 0.84800 0.58084
 0.84900 0.58036
 0.85000 0.57964
 0.85100 0.57860
 0.85200 0.57724
 0.85300 0.57584
 0.85400 0.57464
 0.85500 0.57372
 0.85600 0.57312
 0.85700 0.57264
 0.85800 0.57192
 0.85900 0.57092
 0.86000 0.56964
 0.86100 0.56828
 0.86200 0.56704
 0.86300 0.56612
 0.86400 0.56548
 0.86500 0.56496
 0.86600 0.56432
 0.86700 0.56336
 0.86800 0.56216
 0.86900 0.56080
 0.87000 0.55960
 0.87100 0.55864
 0.87200 0.55800
 0.87300 0.55744
 0.87400 0.55684
 0.87500 0.55596
 0.87600 0.55480
 0.87700 0.55348
 0.87800 0.55224
 0.87900 0.55124
 0.88000 0.55052
 0.88100 0.54992
 0.88200 0.54928
 0.88300 0.54840
 0.88400 0.54724
 0.88500 0.54592
 0.88600 0.54464
 0.88700 0.54352
 0.88800 0.54268
 0.88900 0.54204
 0.89000 0.54132
 0.89100 0.54044
 0.89200 0.53928
 0.89300 0.53796
 0.89400 0.53668
 0.89500 0.53552
 0.89600 0.53464
 0.89700 0.53392
 0.89800 0.53324
 0.89900 0.53236
 0.90000 0.53128
 0.90100 0.53000
 0.90200 0.52872
 0.90300 0.52756
 0.90400 0.52660
 0.90500 0.52584
 0.90600 0.52508
 0.90700 0.52424
 0.90800 0.52316
 0.90900 0.52196
 0.91000 0.52068
 0.91100 0.51952
 0.91200 0.51852
 0.91300 0.51772
 0.91400 0.51700
 0.91500 0.51616
 0.91600 0.51516
 0.91700 0.51400
 0.91800 0.51276
 0.91900 0.51160
 0.92000 0.51060
 0.92100 0.50980
 0.92200 0.50908
 0.92300 0.50828
 0.92400 0.50732
 0.92500 0.50620
 0.92600 0.50500
 0.92700 0.50388
 0.92800 0.50288
 0.92900 0.50204
 0.93000 0.50124
 0.93100 0.50044
 0.93200 0.49948
 0.93300 0.49840
 0.93400 0.49720
 0.93500 0.49604
 0.93600 0.49500
 0.93700 0.49412
 0.93800 0.49336
 0.93900 0.49256
 0.94000 0.49168
 0.94100 0.49068
 0.94200 0.48956
 0.94300 0.48844
 0.94400 0.48740
 0.94500 0.48652
 0.94600 0.48572
 0.94700 0.48492
 0.94800 0.48404
 0.94900 0.48300
 0.95000 0.48192
 0.95100 0.48076
 0.95200 0.47968
 0.95300 0.47868
 0.95400 0.47780
 0.95500 0.47696
 0.95600 0.47604
 0.95700 0.47508
 0.95800 0.47400
 0.95900 0.47292
 0.96000 0.47188
 0.96100 0.47096
 0.96200 0.47012
 0.96300 0.46936
 0.96400 0.46852
 0.96500 0.46760
 0.96600 0.46660
 0.96700 0.46552
 0.96800 0.46448
 0.96900 0.46352
 0.97000 0.46264
 0.97100 0.46176
 0.97200 0.46092
 0.97300 0.45996
 0.97400 0.45896
 0.97500 0.45788
 0.97600 0.45684
 0.97700 0.45584
 0.97800 0.45492
 0.97900 0.45408
 0.98000 0.45324
 0.98100 0.45232
 0.98200 0.45132
 0.98300 0.45024
 0.98400 0.44920
 0.98500 0.44816
 0.98600 0.44724
 0.98700 0.44636
 0.98800 0.44548
 0.98900 0.44456
 0.99000 0.44360
 0.99100 0.44260
 0.99200 0.44156
 0.99300 0.44056
 0.99400 0.43960
 0.99500 0.43872
 0.99600 0.43788
 0.99700 0.43700
 0.99800 0.43608
 0.99900 0.43512
 1.00000 0.43412
 1.00100 0.43316
 1.00200 0.43220
 1.00300 0.43136
 1.00400 0.43052
 1.00500 0.42968
 1.00600 0.42876
 1.00700 0.42784
 1.00800 0.42684
 1.00900 0.42584
 1.01000 0.42492
 1.01100 0.42404
 1.01200 0.42316
 1.01300 0.42232
 1.01400 0.42144
 1.01500 0.42048
 1.01600 0.41948
 1.01700 0.41848
 1.01800 0.41752
 1.01900 0.41660
 1.02000 0.41572
 1.02100 0.41488
 1.02200 0.41400
 1.02300 0.41304
 1.02400 0.41208
 1.02500 0.41112
 1.02600 0.41016
 1.02700 0.40928
 1.02800 0.40844
 1.02900 0.40764
 1.03000 0.40680
 1.03100 0.40592
 1.03200 0.40496
 1.03300 0.40400
 1.03400 0.40308
 1.03500 0.40216
 1.03600 0.40128
 1.03700 0.40044
 1.03800 0.39960
 1.03900 0.39868
 1.04000 0.39772
 1.04100 0.39672
 1.04200 0.39572
 1.04300 0.39476
 1.04400 0.39388
 1.04500 0.39304
 1.04600 0.39216
 1.04700 0.39128
 1.04800 0.39032
 1.04900 0.38936
 1.05000 0.38840
 1.05100 0.38748
 1.05200 0.38664
 1.05300 0.38580
 1.05400 0.38496
 1.05500 0.38412
 1.05600 0.38320
 1.05700 0.38224
 1.05800 0.38128
 1.05900 0.38036
 1.06000 0.37948
 1.06100 0.37868
 1.06200 0.37788
 1.06300 0.37704
 1.06400 0.37612
 1.06500 0.37520
 1.06600 0.37424
 1.06700 0.37332
 1.06800 0.37248
 1.06900 0.37164
 1.07000 0.37084
 1.07100 0.37000
 1.07200 0.36912
 1.07300 0.36820
 1.07400 0.36724
 1.07500 0.36632
 1.07600 0.36548
 1.07700 0.36464
 1.07800 0.36384
 1.07900 0.36304
 1.08000 0.36216
 1.08100 0.36120
 1.08200 0.36028
 1.08300 0.35932
 1.08400 0.35848
 1.08500 0.35764
 1.08600 0.35688
 1.08700 0.35604
 1.08800 0.35520
 1.08900 0.35428
 1.09000 0.35332
 1.09100 0.35240
 1.09200 0.35156
 1.09300 0.35076
 1.09400 0.34996
 1.09500 0.34916
 1.09600 0.34832
 1.09700 0.34740
 1.09800 0.34648
 1.09900 0.34560
