# Heisenberg S=1/2 chain with anisotropy 
# L=32, J=1.0 , Delta=1.5, Delta_{2}=0.8, deltaJ=0.0, deltah=0.0
# Dynamical diffusion D(omega)
# Frequency omega/J, Dynamical diffusion D(omega)

 0.00000 0.47200
 0.00100 0.47204
 0.00200 0.47216
 0.00300 0.47228
 0.00400 0.47240
 0.00500 0.47248
 0.00600 0.47244
 0.00700 0.47244
 0.00800 0.47240
 0.00900 0.47244
 0.01000 0.47256
 0.01100 0.47276
 0.01200 0.47292
 0.01300 0.47308
 0.01400 0.47316
 0.01500 0.47320
 0.01600 0.47320
 0.01700 0.47328
 0.01800 0.47340
 0.01900 0.47360
 0.02000 0.47388
 0.02100 0.47420
 0.02200 0.47444
 0.02300 0.47464
 0.02400 0.47480
 0.02500 0.47492
 0.02600 0.47516
 0.02700 0.47544
 0.02800 0.47580
 0.02900 0.47624
 0.03000 0.47668
 0.03100 0.47708
 0.03200 0.47740
 0.03300 0.47768
 0.03400 0.47792
 0.03500 0.47828
 0.03600 0.47868
 0.03700 0.47916
 0.03800 0.47968
 0.03900 0.48020
 0.04000 0.48068
 0.04100 0.48104
 0.04200 0.48140
 0.04300 0.48176
 0.04400 0.48216
 0.04500 0.48268
 0.04600 0.48328
 0.04700 0.48392
 0.04800 0.48456
 0.04900 0.48512
 0.05000 0.48560
 0.05100 0.48608
 0.05200 0.48656
 0.05300 0.48708
 0.05400 0.48772
 0.05500 0.48840
 0.05600 0.48912
 0.05700 0.48984
 0.05800 0.49044
 0.05900 0.49100
 0.06000 0.49152
 0.06100 0.49208
 0.06200 0.49272
 0.06300 0.49348
 0.06400 0.49428
 0.06500 0.49512
 0.06600 0.49592
 0.06700 0.49664
 0.06800 0.49732
 0.06900 0.49796
 0.07000 0.49864
 0.07100 0.49940
 0.07200 0.50028
 0.07300 0.50120
 0.07400 0.50212
 0.07500 0.50300
 0.07600 0.50380
 0.07700 0.50452
 0.07800 0.50524
 0.07900 0.50604
 0.08000 0.50688
 0.08100 0.50788
 0.08200 0.50888
 0.08300 0.50988
 0.08400 0.51084
 0.08500 0.51172
 0.08600 0.51252
 0.08700 0.51332
 0.08800 0.51420
 0.08900 0.51520
 0.09000 0.51632
 0.09100 0.51748
 0.09200 0.51868
 0.09300 0.51980
 0.09400 0.52080
 0.09500 0.52180
 0.09600 0.52276
 0.09700 0.52384
 0.09800 0.52500
 0.09900 0.52624
 0.10000 0.52752
 0.10100 0.52880
 0.10200 0.52996
 0.10300 0.53104
 0.10400 0.53204
 0.10500 0.53312
 0.10600 0.53424
 0.10700 0.53548
 0.10800 0.53680
 0.10900 0.53816
 0.11000 0.53944
 0.11100 0.54060
 0.11200 0.54172
 0.11300 0.54276
 0.11400 0.54388
 0.11500 0.54512
 0.11600 0.54648
 0.11700 0.54792
 0.11800 0.54936
 0.11900 0.55076
 0.12000 0.55208
 0.12100 0.55328
 0.12200 0.55448
 0.12300 0.55572
 0.12400 0.55712
 0.12500 0.55860
 0.12600 0.56012
 0.12700 0.56164
 0.12800 0.56308
 0.12900 0.56440
 0.13000 0.56564
 0.13100 0.56688
 0.13200 0.56820
 0.13300 0.56964
 0.13400 0.57116
 0.13500 0.57276
 0.13600 0.57436
 0.13700 0.57580
 0.13800 0.57716
 0.13900 0.57844
 0.14000 0.57976
 0.14100 0.58116
 0.14200 0.58268
 0.14300 0.58432
 0.14400 0.58596
 0.14500 0.58752
 0.14600 0.58896
 0.14700 0.59024
 0.14800 0.59152
 0.14900 0.59284
 0.15000 0.59428
 0.15100 0.59588
 0.15200 0.59752
 0.15300 0.59920
 0.15400 0.60080
 0.15500 0.60224
 0.15600 0.60356
 0.15700 0.60488
 0.15800 0.60624
 0.15900 0.60776
 0.16000 0.60936
 0.16100 0.61100
 0.16200 0.61264
 0.16300 0.61412
 0.16400 0.61552
 0.16500 0.61680
 0.16600 0.61808
 0.16700 0.61944
 0.16800 0.62100
 0.16900 0.62264
 0.17000 0.62428
 0.17100 0.62592
 0.17200 0.62740
 0.17300 0.62872
 0.17400 0.62996
 0.17500 0.63124
 0.17600 0.63268
 0.17700 0.63420
 0.17800 0.63588
 0.17900 0.63752
 0.18000 0.63912
 0.18100 0.64056
 0.18200 0.64188
 0.18300 0.64312
 0.18400 0.64444
 0.18500 0.64588
 0.18600 0.64748
 0.18700 0.64912
 0.18800 0.65072
 0.18900 0.65220
 0.19000 0.65352
 0.19100 0.65468
 0.19200 0.65584
 0.19300 0.65704
 0.19400 0.65844
 0.19500 0.65992
 0.19600 0.66148
 0.19700 0.66300
 0.19800 0.66436
 0.19900 0.66556
 0.20000 0.66668
 0.20100 0.66780
 0.20200 0.66900
 0.20300 0.67040
 0.20400 0.67188
 0.20500 0.67336
 0.20600 0.67476
 0.20700 0.67600
 0.20800 0.67708
 0.20900 0.67812
 0.21000 0.67916
 0.21100 0.68036
 0.21200 0.68172
 0.21300 0.68320
 0.21400 0.68464
 0.21500 0.68600
 0.21600 0.68720
 0.21700 0.68824
 0.21800 0.68924
 0.21900 0.69028
 0.22000 0.69152
 0.22100 0.69288
 0.22200 0.69428
 0.22300 0.69560
 0.22400 0.69684
 0.22500 0.69784
 0.22600 0.69872
 0.22700 0.69960
 0.22800 0.70060
 0.22900 0.70180
 0.23000 0.70308
 0.23100 0.70440
 0.23200 0.70568
 0.23300 0.70676
 0.23400 0.70772
 0.23500 0.70856
 0.23600 0.70944
 0.23700 0.71048
 0.23800 0.71168
 0.23900 0.71296
 0.24000 0.71428
 0.24100 0.71544
 0.24200 0.71648
 0.24300 0.71732
 0.24400 0.71808
 0.24500 0.71896
 0.24600 0.72004
 0.24700 0.72128
 0.24800 0.72256
 0.24900 0.72384
 0.25000 0.72496
 0.25100 0.72592
 0.25200 0.72672
 0.25300 0.72752
 0.25400 0.72848
 0.25500 0.72956
 0.25600 0.73084
 0.25700 0.73212
 0.25800 0.73332
 0.25900 0.73432
 0.26000 0.73516
 0.26100 0.73588
 0.26200 0.73664
 0.26300 0.73756
 0.26400 0.73864
 0.26500 0.73984
 0.26600 0.74100
 0.26700 0.74204
 0.26800 0.74292
 0.26900 0.74356
 0.27000 0.74420
 0.27100 0.74488
 0.27200 0.74580
 0.27300 0.74688
 0.27400 0.74808
 0.27500 0.74920
 0.27600 0.75020
 0.27700 0.75100
 0.27800 0.75164
 0.27900 0.75228
 0.28000 0.75304
 0.28100 0.75396
 0.28200 0.75508
 0.28300 0.75624
 0.28400 0.75732
 0.28500 0.75820
 0.28600 0.75892
 0.28700 0.75956
 0.28800 0.76020
 0.28900 0.76104
 0.29000 0.76212
 0.29100 0.76332
 0.29200 0.76456
 0.29300 0.76564
 0.29400 0.76656
 0.29500 0.76732
 0.29600 0.76800
 0.29700 0.76876
 0.29800 0.76972
 0.29900 0.77084
 0.30000 0.77208
 0.30100 0.77324
 0.30200 0.77424
 0.30300 0.77500
 0.30400 0.77556
 0.30500 0.77616
 0.30600 0.77684
 0.30700 0.77776
 0.30800 0.77888
 0.30900 0.78000
 0.31000 0.78108
 0.31100 0.78192
 0.31200 0.78256
 0.31300 0.78312
 0.31400 0.78368
 0.31500 0.78448
 0.31600 0.78552
 0.31700 0.78668
 0.31800 0.78788
 0.31900 0.78892
 0.32000 0.78976
 0.32100 0.79040
 0.32200 0.79096
 0.32300 0.79164
 0.32400 0.79252
 0.32500 0.79364
 0.32600 0.79488
 0.32700 0.79604
 0.32800 0.79700
 0.32900 0.79772
 0.33000 0.79828
 0.33100 0.79880
 0.33200 0.79944
 0.33300 0.80032
 0.33400 0.80136
 0.33500 0.80248
 0.33600 0.80344
 0.33700 0.80420
 0.33800 0.80468
 0.33900 0.80508
 0.34000 0.80552
 0.34100 0.80620
 0.34200 0.80708
 0.34300 0.80820
 0.34400 0.80928
 0.34500 0.81024
 0.34600 0.81100
 0.34700 0.81152
 0.34800 0.81200
 0.34900 0.81260
 0.35000 0.81348
 0.35100 0.81460
 0.35200 0.81580
 0.35300 0.81696
 0.35400 0.81792
 0.35500 0.81860
 0.35600 0.81908
 0.35700 0.81952
 0.35800 0.82016
 0.35900 0.82104
 0.36000 0.82212
 0.36100 0.82328
 0.36200 0.82436
 0.36300 0.82516
 0.36400 0.82572
 0.36500 0.82612
 0.36600 0.82656
 0.36700 0.82724
 0.36800 0.82816
 0.36900 0.82924
 0.37000 0.83032
 0.37100 0.83124
 0.37200 0.83188
 0.37300 0.83228
 0.37400 0.83260
 0.37500 0.83304
 0.37600 0.83376
 0.37700 0.83476
 0.37800 0.83592
 0.37900 0.83700
 0.38000 0.83792
 0.38100 0.83852
 0.38200 0.83888
 0.38300 0.83928
 0.38400 0.83980
 0.38500 0.84056
 0.38600 0.84160
 0.38700 0.84264
 0.38800 0.84356
 0.38900 0.84424
 0.39000 0.84460
 0.39100 0.84484
 0.39200 0.84508
 0.39300 0.84556
 0.39400 0.84632
 0.39500 0.84732
 0.39600 0.84832
 0.39700 0.84916
 0.39800 0.84976
 0.39900 0.85012
 0.40000 0.85040
 0.40100 0.85076
 0.40200 0.85144
 0.40300 0.85240
 0.40400 0.85348
 0.40500 0.85452
 0.40600 0.85532
 0.40700 0.85580
 0.40800 0.85604
 0.40900 0.85624
 0.41000 0.85660
 0.41100 0.85724
 0.41200 0.85812
 0.41300 0.85916
 0.41400 0.86004
 0.41500 0.86068
 0.41600 0.86104
 0.41700 0.86120
 0.41800 0.86144
 0.41900 0.86188
 0.42000 0.86268
 0.42100 0.86368
 0.42200 0.86476
 0.42300 0.86564
 0.42400 0.86624
 0.42500 0.86660
 0.42600 0.86680
 0.42700 0.86712
 0.42800 0.86772
 0.42900 0.86860
 0.43000 0.86964
 0.43100 0.87068
 0.43200 0.87144
 0.43300 0.87188
 0.43400 0.87208
 0.43500 0.87220
 0.43600 0.87248
 0.43700 0.87308
 0.43800 0.87392
 0.43900 0.87492
 0.44000 0.87580
 0.44100 0.87640
 0.44200 0.87668
 0.44300 0.87672
 0.44400 0.87680
 0.44500 0.87708
 0.44600 0.87764
 0.44700 0.87848
 0.44800 0.87940
 0.44900 0.88016
 0.45000 0.88060
 0.45100 0.88076
 0.45200 0.88080
 0.45300 0.88092
 0.45400 0.88128
 0.45500 0.88200
 0.45600 0.88288
 0.45700 0.88376
 0.45800 0.88440
 0.45900 0.88472
 0.46000 0.88480
 0.46100 0.88476
 0.46200 0.88484
 0.46300 0.88524
 0.46400 0.88596
 0.46500 0.88684
 0.46600 0.88764
 0.46700 0.88820
 0.46800 0.88840
 0.46900 0.88836
 0.47000 0.88828
 0.47100 0.88840
 0.47200 0.88876
 0.47300 0.88944
 0.47400 0.89016
 0.47500 0.89076
 0.47600 0.89108
 0.47700 0.89108
 0.47800 0.89096
 0.47900 0.89084
 0.48000 0.89096
 0.48100 0.89140
 0.48200 0.89208
 0.48300 0.89280
 0.48400 0.89328
 0.48500 0.89344
 0.48600 0.89332
 0.48700 0.89308
 0.48800 0.89292
 0.48900 0.89304
 0.49000 0.89348
 0.49100 0.89408
 0.49200 0.89464
 0.49300 0.89500
 0.49400 0.89508
 0.49500 0.89488
 0.49600 0.89468
 0.49700 0.89460
 0.49800 0.89484
 0.49900 0.89536
 0.50000 0.89600
 0.50100 0.89652
 0.50200 0.89680
 0.50300 0.89676
 0.50400 0.89652
 0.50500 0.89624
 0.50600 0.89620
 0.50700 0.89640
 0.50800 0.89688
 0.50900 0.89740
 0.51000 0.89780
 0.51100 0.89788
 0.51200 0.89768
 0.51300 0.89732
 0.51400 0.89700
 0.51500 0.89692
 0.51600 0.89708
 0.51700 0.89748
 0.51800 0.89788
 0.51900 0.89808
 0.52000 0.89800
 0.52100 0.89768
 0.52200 0.89724
 0.52300 0.89692
 0.52400 0.89684
 0.52500 0.89704
 0.52600 0.89744
 0.52700 0.89776
 0.52800 0.89788
 0.52900 0.89772
 0.53000 0.89736
 0.53100 0.89688
 0.53200 0.89652
 0.53300 0.89640
 0.53400 0.89652
 0.53500 0.89676
 0.53600 0.89688
 0.53700 0.89672
 0.53800 0.89632
 0.53900 0.89572
 0.54000 0.89512
 0.54100 0.89464
 0.54200 0.89448
 0.54300 0.89452
 0.54400 0.89468
 0.54500 0.89472
 0.54600 0.89452
 0.54700 0.89408
 0.54800 0.89348
 0.54900 0.89288
 0.55000 0.89248
 0.55100 0.89232
 0.55200 0.89236
 0.55300 0.89240
 0.55400 0.89228
 0.55500 0.89196
 0.55600 0.89136
 0.55700 0.89064
 0.55800 0.88996
 0.55900 0.88948
 0.56000 0.88928
 0.56100 0.88924
 0.56200 0.88924
 0.56300 0.88904
 0.56400 0.88864
 0.56500 0.88804
 0.56600 0.88736
 0.56700 0.88672
 0.56800 0.88632
 0.56900 0.88612
 0.57000 0.88608
 0.57100 0.88596
 0.57200 0.88568
 0.57300 0.88516
 0.57400 0.88444
 0.57500 0.88368
 0.57600 0.88296
 0.57700 0.88248
 0.57800 0.88224
 0.57900 0.88208
 0.58000 0.88188
 0.58100 0.88152
 0.58200 0.88088
 0.58300 0.88008
 0.58400 0.87924
 0.58500 0.87852
 0.58600 0.87800
 0.58700 0.87768
 0.58800 0.87744
 0.58900 0.87708
 0.59000 0.87656
 0.59100 0.87580
 0.59200 0.87488
 0.59300 0.87392
 0.59400 0.87308
 0.59500 0.87244
 0.59600 0.87200
 0.59700 0.87164
 0.59800 0.87116
 0.59900 0.87048
 0.60000 0.86956
 0.60100 0.86852
 0.60200 0.86748
 0.60300 0.86660
 0.60400 0.86592
 0.60500 0.86544
 0.60600 0.86500
 0.60700 0.86444
 0.60800 0.86364
 0.60900 0.86264
 0.61000 0.86148
 0.61100 0.86032
 0.61200 0.85936
 0.61300 0.85864
 0.61400 0.85808
 0.61500 0.85756
 0.61600 0.85692
 0.61700 0.85608
 0.61800 0.85504
 0.61900 0.85384
 0.62000 0.85272
 0.62100 0.85176
 0.62200 0.85100
 0.62300 0.85044
 0.62400 0.84984
 0.62500 0.84912
 0.62600 0.84820
 0.62700 0.84704
 0.62800 0.84580
 0.62900 0.84460
 0.63000 0.84364
 0.63100 0.84292
 0.63200 0.84232
 0.63300 0.84172
 0.63400 0.84092
 0.63500 0.83984
 0.63600 0.83852
 0.63700 0.83712
 0.63800 0.83580
 0.63900 0.83472
 0.64000 0.83388
 0.64100 0.83316
 0.64200 0.83244
 0.64300 0.83148
 0.64400 0.83028
 0.64500 0.82884
 0.64600 0.82736
 0.64700 0.82600
 0.64800 0.82496
 0.64900 0.82416
 0.65000 0.82348
 0.65100 0.82272
 0.65200 0.82176
 0.65300 0.82048
 0.65400 0.81900
 0.65500 0.81748
 0.65600 0.81612
 0.65700 0.81504
 0.65800 0.81424
 0.65900 0.81352
 0.66000 0.81268
 0.66100 0.81156
 0.66200 0.81012
 0.66300 0.80848
 0.66400 0.80688
 0.66500 0.80548
 0.66600 0.80440
 0.66700 0.80360
 0.66800 0.80284
 0.66900 0.80192
 0.67000 0.80076
 0.67100 0.79928
 0.67200 0.79764
 0.67300 0.79612
 0.67400 0.79488
 0.67500 0.79396
 0.67600 0.79328
 0.67700 0.79256
 0.67800 0.79164
 0.67900 0.79032
 0.68000 0.78872
 0.68100 0.78696
 0.68200 0.78532
 0.68300 0.78396
 0.68400 0.78300
 0.68500 0.78216
 0.68600 0.78132
 0.68700 0.78020
 0.68800 0.77876
 0.68900 0.77704
 0.69000 0.77528
 0.69100 0.77372
 0.69200 0.77252
 0.69300 0.77168
 0.69400 0.77096
 0.69500 0.77012
 0.69600 0.76892
 0.69700 0.76736
 0.69800 0.76552
 0.69900 0.76364
 0.70000 0.76204
 0.70100 0.76080
 0.70200 0.75984
 0.70300 0.75900
 0.70400 0.75796
 0.70500 0.75656
 0.70600 0.75476
 0.70700 0.75276
 0.70800 0.75088
 0.70900 0.74932
 0.71000 0.74816
 0.71100 0.74728
 0.71200 0.74640
 0.71300 0.74528
 0.71400 0.74380
 0.71500 0.74192
 0.71600 0.73996
 0.71700 0.73812
 0.71800 0.73672
 0.71900 0.73568
 0.72000 0.73492
 0.72100 0.73408
 0.72200 0.73296
 0.72300 0.73140
 0.72400 0.72948
 0.72500 0.72748
 0.72600 0.72568
 0.72700 0.72432
 0.72800 0.72332
 0.72900 0.72248
 0.73000 0.72148
 0.73100 0.72016
 0.73200 0.71836
 0.73300 0.71632
 0.73400 0.71424
 0.73500 0.71252
 0.73600 0.71120
 0.73700 0.71024
 0.73800 0.70936
 0.73900 0.70824
 0.74000 0.70672
 0.74100 0.70480
 0.74200 0.70260
 0.74300 0.70056
 0.74400 0.69884
 0.74500 0.69764
 0.74600 0.69676
 0.74700 0.69588
 0.74800 0.69476
 0.74900 0.69324
 0.75000 0.69128
 0.75100 0.68920
 0.75200 0.68732
 0.75300 0.68584
 0.75400 0.68480
 0.75500 0.68400
 0.75600 0.68312
 0.75700 0.68188
 0.75800 0.68016
 0.75900 0.67812
 0.76000 0.67600
 0.76100 0.67412
 0.76200 0.67272
 0.76300 0.67172
 0.76400 0.67084
 0.76500 0.66984
 0.76600 0.66844
 0.76700 0.66656
 0.76800 0.66444
 0.76900 0.66232
 0.77000 0.66056
 0.77100 0.65928
 0.77200 0.65832
 0.77300 0.65748
 0.77400 0.65640
 0.77500 0.65488
 0.77600 0.65292
 0.77700 0.65076
 0.77800 0.64872
 0.77900 0.64704
 0.78000 0.64588
 0.78100 0.64496
 0.78200 0.64404
 0.78300 0.64280
 0.78400 0.64112
 0.78500 0.63904
 0.78600 0.63684
 0.78700 0.63488
 0.78800 0.63332
 0.78900 0.63224
 0.79000 0.63136
 0.79100 0.63040
 0.79200 0.62908
 0.79300 0.62728
 0.79400 0.62516
 0.79500 0.62304
 0.79600 0.62124
 0.79700 0.61984
 0.79800 0.61888
 0.79900 0.61800
 0.80000 0.61700
 0.80100 0.61556
 0.80200 0.61368
 0.80300 0.61152
 0.80400 0.60948
 0.80500 0.60780
 0.80600 0.60656
 0.80700 0.60568
 0.80800 0.60484
 0.80900 0.60376
 0.81000 0.60224
 0.81100 0.60032
 0.81200 0.59820
 0.81300 0.59628
 0.81400 0.59472
 0.81500 0.59364
 0.81600 0.59276
 0.81700 0.59188
 0.81800 0.59064
 0.81900 0.58896
 0.82000 0.58688
 0.82100 0.58476
 0.82200 0.58288
 0.82300 0.58136
 0.82400 0.58028
 0.82500 0.57936
 0.82600 0.57832
 0.82700 0.57692
 0.82800 0.57512
 0.82900 0.57300
 0.83000 0.57096
 0.83100 0.56920
 0.83200 0.56792
 0.83300 0.56696
 0.83400 0.56608
 0.83500 0.56500
 0.83600 0.56356
 0.83700 0.56172
 0.83800 0.55964
 0.83900 0.55772
 0.84000 0.55616
 0.84100 0.55500
 0.84200 0.55412
 0.84300 0.55320
 0.84400 0.55208
 0.84500 0.55052
 0.84600 0.54860
 0.84700 0.54660
 0.84800 0.54476
 0.84900 0.54332
 0.85000 0.54224
 0.85100 0.54140
 0.85200 0.54044
 0.85300 0.53916
 0.85400 0.53752
 0.85500 0.53560
 0.85600 0.53364
 0.85700 0.53192
 0.85800 0.53060
 0.85900 0.52960
 0.86000 0.52872
 0.86100 0.52768
 0.86200 0.52628
 0.86300 0.52452
 0.86400 0.52256
 0.86500 0.52064
 0.86600 0.51904
 0.86700 0.51780
 0.86800 0.51684
 0.86900 0.51592
 0.87000 0.51476
 0.87100 0.51328
 0.87200 0.51148
 0.87300 0.50956
 0.87400 0.50776
 0.87500 0.50628
 0.87600 0.50516
 0.87700 0.50424
 0.87800 0.50332
 0.87900 0.50212
 0.88000 0.50060
 0.88100 0.49884
 0.88200 0.49704
 0.88300 0.49544
 0.88400 0.49412
 0.88500 0.49312
 0.88600 0.49224
 0.88700 0.49128
 0.88800 0.49000
 0.88900 0.48840
 0.89000 0.48664
 0.89100 0.48488
 0.89200 0.48336
 0.89300 0.48216
 0.89400 0.48120
 0.89500 0.48028
 0.89600 0.47920
 0.89700 0.47784
 0.89800 0.47616
 0.89900 0.47440
 0.90000 0.47272
 0.90100 0.47128
 0.90200 0.47016
 0.90300 0.46920
 0.90400 0.46824
 0.90500 0.46708
 0.90600 0.46568
 0.90700 0.46404
 0.90800 0.46236
 0.90900 0.46080
 0.91000 0.45952
 0.91100 0.45852
 0.91200 0.45760
 0.91300 0.45664
 0.91400 0.45540
 0.91500 0.45396
 0.91600 0.45232
 0.91700 0.45068
 0.91800 0.44924
 0.91900 0.44808
 0.92000 0.44708
 0.92100 0.44616
 0.92200 0.44508
 0.92300 0.44380
 0.92400 0.44232
 0.92500 0.44072
 0.92600 0.43920
 0.92700 0.43788
 0.92800 0.43680
 0.92900 0.43584
 0.93000 0.43492
 0.93100 0.43384
 0.93200 0.43252
 0.93300 0.43104
 0.93400 0.42952
 0.93500 0.42812
 0.93600 0.42692
 0.93700 0.42588
 0.93800 0.42496
 0.93900 0.42392
 0.94000 0.42272
 0.94100 0.42136
 0.94200 0.41984
 0.94300 0.41832
 0.94400 0.41700
 0.94500 0.41584
 0.94600 0.41484
 0.94700 0.41388
 0.94800 0.41280
 0.94900 0.41156
 0.95000 0.41020
 0.95100 0.40872
 0.95200 0.40736
 0.95300 0.40616
 0.95400 0.40512
 0.95500 0.40424
 0.95600 0.40332
 0.95700 0.40228
 0.95800 0.40108
 0.95900 0.39976
 0.96000 0.39844
 0.96100 0.39720
 0.96200 0.39612
 0.96300 0.39516
 0.96400 0.39428
 0.96500 0.39328
 0.96600 0.39220
 0.96700 0.39092
 0.96800 0.38956
 0.96900 0.38824
 0.97000 0.38704
 0.97100 0.38596
 0.97200 0.38500
 0.97300 0.38404
 0.97400 0.38296
 0.97500 0.38176
 0.97600 0.38044
 0.97700 0.37908
 0.97800 0.37784
 0.97900 0.37672
 0.98000 0.37576
 0.98100 0.37484
 0.98200 0.37388
 0.98300 0.37284
 0.98400 0.37164
 0.98500 0.37036
 0.98600 0.36912
 0.98700 0.36796
 0.98800 0.36696
 0.98900 0.36604
 0.99000 0.36512
 0.99100 0.36412
 0.99200 0.36300
 0.99300 0.36180
 0.99400 0.36056
 0.99500 0.35936
 0.99600 0.35828
 0.99700 0.35732
 0.99800 0.35640
 0.99900 0.35548
 1.00000 0.35444
 1.00100 0.35328
 1.00200 0.35208
 1.00300 0.35084
 1.00400 0.34972
 1.00500 0.34872
 1.00600 0.34780
 1.00700 0.34692
 1.00800 0.34600
 1.00900 0.34492
 1.01000 0.34376
 1.01100 0.34256
 1.01200 0.34144
 1.01300 0.34044
 1.01400 0.33956
 1.01500 0.33876
 1.01600 0.33792
 1.01700 0.33700
 1.01800 0.33596
 1.01900 0.33484
 1.02000 0.33372
 1.02100 0.33272
 1.02200 0.33180
 1.02300 0.33104
 1.02400 0.33024
 1.02500 0.32944
 1.02600 0.32848
 1.02700 0.32744
 1.02800 0.32632
 1.02900 0.32524
 1.03000 0.32428
 1.03100 0.32344
 1.03200 0.32264
 1.03300 0.32184
 1.03400 0.32096
 1.03500 0.31992
 1.03600 0.31880
 1.03700 0.31768
 1.03800 0.31664
 1.03900 0.31572
 1.04000 0.31492
 1.04100 0.31416
 1.04200 0.31336
 1.04300 0.31244
 1.04400 0.31140
 1.04500 0.31028
 1.04600 0.30920
 1.04700 0.30820
 1.04800 0.30736
 1.04900 0.30660
 1.05000 0.30584
 1.05100 0.30500
 1.05200 0.30404
 1.05300 0.30296
 1.05400 0.30184
 1.05500 0.30084
 1.05600 0.29996
 1.05700 0.29920
 1.05800 0.29856
 1.05900 0.29788
 1.06000 0.29704
 1.06100 0.29612
 1.06200 0.29504
 1.06300 0.29400
 1.06400 0.29304
 1.06500 0.29224
 1.06600 0.29156
 1.06700 0.29088
 1.06800 0.29016
 1.06900 0.28932
 1.07000 0.28828
 1.07100 0.28720
 1.07200 0.28616
 1.07300 0.28524
 1.07400 0.28448
 1.07500 0.28384
 1.07600 0.28320
 1.07700 0.28244
 1.07800 0.28152
 1.07900 0.28048
 1.08000 0.27944
 1.08100 0.27844
 1.08200 0.27760
 1.08300 0.27692
 1.08400 0.27632
 1.08500 0.27572
 1.08600 0.27496
 1.08700 0.27404
 1.08800 0.27300
 1.08900 0.27200
 1.09000 0.27108
 1.09100 0.27032
 1.09200 0.26972
 1.09300 0.26916
 1.09400 0.26856
 1.09500 0.26780
 1.09600 0.26684
 1.09700 0.26584
 1.09800 0.26488
 1.09900 0.26404
