# Heisenberg S=1/2 chain with anisotropy 
# L=32, J=1.0 , Delta=1.5, Delta_{2}=0.2, deltaJ=0.0, deltah=0.0
# Dynamical diffusion D(omega)
# Frequency omega/J, Dynamical diffusion D(omega)

 0.00000 0.15004
 0.00100 0.15008
 0.00200 0.15024
 0.00300 0.15044
 0.00400 0.15072
 0.00500 0.15100
 0.00600 0.15132
 0.00700 0.15172
 0.00800 0.15224
 0.00900 0.15284
 0.01000 0.15352
 0.01100 0.15428
 0.01200 0.15512
 0.01300 0.15596
 0.01400 0.15688
 0.01500 0.15784
 0.01600 0.15888
 0.01700 0.16004
 0.01800 0.16128
 0.01900 0.16260
 0.02000 0.16396
 0.02100 0.16540
 0.02200 0.16684
 0.02300 0.16832
 0.02400 0.16988
 0.02500 0.17156
 0.02600 0.17332
 0.02700 0.17520
 0.02800 0.17708
 0.02900 0.17900
 0.03000 0.18096
 0.03100 0.18292
 0.03200 0.18496
 0.03300 0.18712
 0.03400 0.18932
 0.03500 0.19164
 0.03600 0.19400
 0.03700 0.19636
 0.03800 0.19876
 0.03900 0.20116
 0.04000 0.20360
 0.04100 0.20612
 0.04200 0.20872
 0.04300 0.21144
 0.04400 0.21420
 0.04500 0.21692
 0.04600 0.21964
 0.04700 0.22236
 0.04800 0.22512
 0.04900 0.22800
 0.05000 0.23092
 0.05100 0.23396
 0.05200 0.23700
 0.05300 0.24000
 0.05400 0.24296
 0.05500 0.24592
 0.05600 0.24892
 0.05700 0.25196
 0.05800 0.25512
 0.05900 0.25836
 0.06000 0.26160
 0.06100 0.26484
 0.06200 0.26800
 0.06300 0.27108
 0.06400 0.27424
 0.06500 0.27744
 0.06600 0.28072
 0.06700 0.28412
 0.06800 0.28752
 0.06900 0.29084
 0.07000 0.29412
 0.07100 0.29736
 0.07200 0.30060
 0.07300 0.30392
 0.07400 0.30740
 0.07500 0.31092
 0.07600 0.31448
 0.07700 0.31796
 0.07800 0.32136
 0.07900 0.32468
 0.08000 0.32804
 0.08100 0.33152
 0.08200 0.33512
 0.08300 0.33880
 0.08400 0.34248
 0.08500 0.34612
 0.08600 0.34964
 0.08700 0.35312
 0.08800 0.35660
 0.08900 0.36024
 0.09000 0.36400
 0.09100 0.36788
 0.09200 0.37176
 0.09300 0.37556
 0.09400 0.37920
 0.09500 0.38280
 0.09600 0.38640
 0.09700 0.39012
 0.09800 0.39404
 0.09900 0.39804
 0.10000 0.40200
 0.10100 0.40584
 0.10200 0.40956
 0.10300 0.41316
 0.10400 0.41684
 0.10500 0.42064
 0.10600 0.42460
 0.10700 0.42868
 0.10800 0.43268
 0.10900 0.43652
 0.11000 0.44020
 0.11100 0.44376
 0.11200 0.44736
 0.11300 0.45112
 0.11400 0.45504
 0.11500 0.45900
 0.11600 0.46292
 0.11700 0.46664
 0.11800 0.47016
 0.11900 0.47352
 0.12000 0.47696
 0.12100 0.48052
 0.12200 0.48428
 0.12300 0.48808
 0.12400 0.49176
 0.12500 0.49520
 0.12600 0.49840
 0.12700 0.50148
 0.12800 0.50464
 0.12900 0.50796
 0.13000 0.51144
 0.13100 0.51500
 0.13200 0.51836
 0.13300 0.52148
 0.13400 0.52436
 0.13500 0.52708
 0.13600 0.52996
 0.13700 0.53300
 0.13800 0.53624
 0.13900 0.53948
 0.14000 0.54256
 0.14100 0.54536
 0.14200 0.54788
 0.14300 0.55032
 0.14400 0.55292
 0.14500 0.55572
 0.14600 0.55872
 0.14700 0.56176
 0.14800 0.56460
 0.14900 0.56712
 0.15000 0.56940
 0.15100 0.57164
 0.15200 0.57404
 0.15300 0.57672
 0.15400 0.57960
 0.15500 0.58248
 0.15600 0.58520
 0.15700 0.58760
 0.15800 0.58980
 0.15900 0.59200
 0.16000 0.59444
 0.16100 0.59716
 0.16200 0.60016
 0.16300 0.60312
 0.16400 0.60592
 0.16500 0.60840
 0.16600 0.61072
 0.16700 0.61304
 0.16800 0.61564
 0.16900 0.61860
 0.17000 0.62176
 0.17100 0.62492
 0.17200 0.62788
 0.17300 0.63060
 0.17400 0.63312
 0.17500 0.63572
 0.17600 0.63864
 0.17700 0.64192
 0.17800 0.64548
 0.17900 0.64900
 0.18000 0.65236
 0.18100 0.65540
 0.18200 0.65832
 0.18300 0.66136
 0.18400 0.66472
 0.18500 0.66848
 0.18600 0.67248
 0.18700 0.67644
 0.18800 0.68020
 0.18900 0.68368
 0.19000 0.68700
 0.19100 0.69048
 0.19200 0.69432
 0.19300 0.69860
 0.19400 0.70308
 0.19500 0.70752
 0.19600 0.71172
 0.19700 0.71564
 0.19800 0.71948
 0.19900 0.72348
 0.20000 0.72792
 0.20100 0.73272
 0.20200 0.73776
 0.20300 0.74268
 0.20400 0.74728
 0.20500 0.75156
 0.20600 0.75576
 0.20700 0.76012
 0.20800 0.76488
 0.20900 0.77004
 0.21000 0.77532
 0.21100 0.78048
 0.21200 0.78524
 0.21300 0.78968
 0.21400 0.79404
 0.21500 0.79860
 0.21600 0.80356
 0.21700 0.80884
 0.21800 0.81424
 0.21900 0.81936
 0.22000 0.82404
 0.22100 0.82836
 0.22200 0.83252
 0.22300 0.83688
 0.22400 0.84156
 0.22500 0.84648
 0.22600 0.85136
 0.22700 0.85588
 0.22800 0.85992
 0.22900 0.86348
 0.23000 0.86696
 0.23100 0.87060
 0.23200 0.87456
 0.23300 0.87872
 0.23400 0.88272
 0.23500 0.88628
 0.23600 0.88928
 0.23700 0.89184
 0.23800 0.89432
 0.23900 0.89692
 0.24000 0.89976
 0.24100 0.90272
 0.24200 0.90536
 0.24300 0.90748
 0.24400 0.90892
 0.24500 0.90992
 0.24600 0.91076
 0.24700 0.91172
 0.24800 0.91280
 0.24900 0.91388
 0.25000 0.91460
 0.25100 0.91468
 0.25200 0.91420
 0.25300 0.91328
 0.25400 0.91228
 0.25500 0.91144
 0.25600 0.91072
 0.25700 0.90992
 0.25800 0.90876
 0.25900 0.90700
 0.26000 0.90468
 0.26100 0.90204
 0.26200 0.89940
 0.26300 0.89692
 0.26400 0.89456
 0.26500 0.89212
 0.26600 0.88928
 0.26700 0.88592
 0.26800 0.88208
 0.26900 0.87804
 0.27000 0.87400
 0.27100 0.87016
 0.27200 0.86648
 0.27300 0.86268
 0.27400 0.85860
 0.27500 0.85404
 0.27600 0.84912
 0.27700 0.84404
 0.27800 0.83912
 0.27900 0.83444
 0.28000 0.82988
 0.28100 0.82532
 0.28200 0.82048
 0.28300 0.81532
 0.28400 0.80992
 0.28500 0.80448
 0.28600 0.79920
 0.28700 0.79424
 0.28800 0.78944
 0.28900 0.78464
 0.29000 0.77964
 0.29100 0.77436
 0.29200 0.76896
 0.29300 0.76360
 0.29400 0.75848
 0.29500 0.75368
 0.29600 0.74908
 0.29700 0.74452
 0.29800 0.73984
 0.29900 0.73500
 0.30000 0.73008
 0.30100 0.72524
 0.30200 0.72068
 0.30300 0.71644
 0.30400 0.71240
 0.30500 0.70840
 0.30600 0.70432
 0.30700 0.70008
 0.30800 0.69580
 0.30900 0.69160
 0.31000 0.68768
 0.31100 0.68400
 0.31200 0.68056
 0.31300 0.67716
 0.31400 0.67364
 0.31500 0.67000
 0.31600 0.66636
 0.31700 0.66276
 0.31800 0.65944
 0.31900 0.65640
 0.32000 0.65356
 0.32100 0.65080
 0.32200 0.64800
 0.32300 0.64512
 0.32400 0.64224
 0.32500 0.63948
 0.32600 0.63692
 0.32700 0.63468
 0.32800 0.63260
 0.32900 0.63060
 0.33000 0.62860
 0.33100 0.62648
 0.33200 0.62436
 0.33300 0.62236
 0.33400 0.62056
 0.33500 0.61900
 0.33600 0.61764
 0.33700 0.61628
 0.33800 0.61492
 0.33900 0.61344
 0.34000 0.61192
 0.34100 0.61048
 0.34200 0.60920
 0.34300 0.60816
 0.34400 0.60724
 0.34500 0.60640
 0.34600 0.60548
 0.34700 0.60452
 0.34800 0.60348
 0.34900 0.60252
 0.35000 0.60172
 0.35100 0.60116
 0.35200 0.60072
 0.35300 0.60032
 0.35400 0.59992
 0.35500 0.59936
 0.35600 0.59880
 0.35700 0.59828
 0.35800 0.59788
 0.35900 0.59772
 0.36000 0.59768
 0.36100 0.59768
 0.36200 0.59768
 0.36300 0.59756
 0.36400 0.59744
 0.36500 0.59732
 0.36600 0.59740
 0.36700 0.59760
 0.36800 0.59796
 0.36900 0.59836
 0.37000 0.59872
 0.37100 0.59900
 0.37200 0.59920
 0.37300 0.59944
 0.37400 0.59980
 0.37500 0.60028
 0.37600 0.60092
 0.37700 0.60160
 0.37800 0.60224
 0.37900 0.60276
 0.38000 0.60320
 0.38100 0.60364
 0.38200 0.60416
 0.38300 0.60488
 0.38400 0.60568
 0.38500 0.60656
 0.38600 0.60736
 0.38700 0.60804
 0.38800 0.60864
 0.38900 0.60924
 0.39000 0.60996
 0.39100 0.61080
 0.39200 0.61180
 0.39300 0.61284
 0.39400 0.61388
 0.39500 0.61476
 0.39600 0.61560
 0.39700 0.61640
 0.39800 0.61728
 0.39900 0.61832
 0.40000 0.61952
 0.40100 0.62076
 0.40200 0.62192
 0.40300 0.62300
 0.40400 0.62396
 0.40500 0.62488
 0.40600 0.62588
 0.40700 0.62704
 0.40800 0.62836
 0.40900 0.62972
 0.41000 0.63104
 0.41100 0.63220
 0.41200 0.63328
 0.41300 0.63428
 0.41400 0.63536
 0.41500 0.63660
 0.41600 0.63800
 0.41700 0.63944
 0.41800 0.64084
 0.41900 0.64208
 0.42000 0.64316
 0.42100 0.64420
 0.42200 0.64528
 0.42300 0.64652
 0.42400 0.64792
 0.42500 0.64936
 0.42600 0.65076
 0.42700 0.65196
 0.42800 0.65304
 0.42900 0.65404
 0.43000 0.65512
 0.43100 0.65636
 0.43200 0.65780
 0.43300 0.65928
 0.43400 0.66072
 0.43500 0.66200
 0.43600 0.66312
 0.43700 0.66420
 0.43800 0.66536
 0.43900 0.66668
 0.44000 0.66816
 0.44100 0.66972
 0.44200 0.67124
 0.44300 0.67252
 0.44400 0.67364
 0.44500 0.67468
 0.44600 0.67580
 0.44700 0.67712
 0.44800 0.67856
 0.44900 0.68008
 0.45000 0.68148
 0.45100 0.68272
 0.45200 0.68372
 0.45300 0.68468
 0.45400 0.68572
 0.45500 0.68692
 0.45600 0.68832
 0.45700 0.68976
 0.45800 0.69112
 0.45900 0.69228
 0.46000 0.69324
 0.46100 0.69412
 0.46200 0.69508
 0.46300 0.69624
 0.46400 0.69760
 0.46500 0.69900
 0.46600 0.70028
 0.46700 0.70136
 0.46800 0.70216
 0.46900 0.70292
 0.47000 0.70372
 0.47100 0.70476
 0.47200 0.70596
 0.47300 0.70724
 0.47400 0.70836
 0.47500 0.70924
 0.47600 0.70988
 0.47700 0.71044
 0.47800 0.71112
 0.47900 0.71200
 0.48000 0.71308
 0.48100 0.71420
 0.48200 0.71520
 0.48300 0.71596
 0.48400 0.71652
 0.48500 0.71696
 0.48600 0.71756
 0.48700 0.71836
 0.48800 0.71932
 0.48900 0.72036
 0.49000 0.72124
 0.49100 0.72184
 0.49200 0.72224
 0.49300 0.72256
 0.49400 0.72296
 0.49500 0.72360
 0.49600 0.72444
 0.49700 0.72528
 0.49800 0.72600
 0.49900 0.72640
 0.50000 0.72664
 0.50100 0.72680
 0.50200 0.72708
 0.50300 0.72756
 0.50400 0.72828
 0.50500 0.72900
 0.50600 0.72956
 0.50700 0.72988
 0.50800 0.72992
 0.50900 0.72992
 0.51000 0.73004
 0.51100 0.73040
 0.51200 0.73096
 0.51300 0.73152
 0.51400 0.73188
 0.51500 0.73200
 0.51600 0.73188
 0.51700 0.73172
 0.51800 0.73168
 0.51900 0.73188
 0.52000 0.73228
 0.52100 0.73268
 0.52200 0.73292
 0.52300 0.73288
 0.52400 0.73264
 0.52500 0.73232
 0.52600 0.73220
 0.52700 0.73228
 0.52800 0.73252
 0.52900 0.73280
 0.53000 0.73288
 0.53100 0.73264
 0.53200 0.73220
 0.53300 0.73172
 0.53400 0.73140
 0.53500 0.73132
 0.53600 0.73140
 0.53700 0.73152
 0.53800 0.73140
 0.53900 0.73104
 0.54000 0.73044
 0.54100 0.72980
 0.54200 0.72936
 0.54300 0.72912
 0.54400 0.72904
 0.54500 0.72900
 0.54600 0.72876
 0.54700 0.72824
 0.54800 0.72752
 0.54900 0.72676
 0.55000 0.72620
 0.55100 0.72584
 0.55200 0.72568
 0.55300 0.72548
 0.55400 0.72512
 0.55500 0.72444
 0.55600 0.72364
 0.55700 0.72280
 0.55800 0.72212
 0.55900 0.72168
 0.56000 0.72140
 0.56100 0.72112
 0.56200 0.72064
 0.56300 0.71992
 0.56400 0.71900
 0.56500 0.71808
 0.56600 0.71732
 0.56700 0.71680
 0.56800 0.71640
 0.56900 0.71600
 0.57000 0.71540
 0.57100 0.71452
 0.57200 0.71348
 0.57300 0.71244
 0.57400 0.71156
 0.57500 0.71096
 0.57600 0.71048
 0.57700 0.70996
 0.57800 0.70932
 0.57900 0.70840
 0.58000 0.70732
 0.58100 0.70624
 0.58200 0.70536
 0.58300 0.70472
 0.58400 0.70420
 0.58500 0.70368
 0.58600 0.70296
 0.58700 0.70200
 0.58800 0.70088
 0.58900 0.69980
 0.59000 0.69888
 0.59100 0.69820
 0.59200 0.69768
 0.59300 0.69716
 0.59400 0.69644
 0.59500 0.69552
 0.59600 0.69444
 0.59700 0.69340
 0.59800 0.69256
 0.59900 0.69192
 0.60000 0.69140
 0.60100 0.69088
 0.60200 0.69012
 0.60300 0.68916
 0.60400 0.68808
 0.60500 0.68700
 0.60600 0.68612
 0.60700 0.68544
 0.60800 0.68488
 0.60900 0.68428
 0.61000 0.68348
 0.61100 0.68248
 0.61200 0.68132
 0.61300 0.68016
 0.61400 0.67924
 0.61500 0.67852
 0.61600 0.67792
 0.61700 0.67728
 0.61800 0.67652
 0.61900 0.67552
 0.62000 0.67444
 0.62100 0.67340
 0.62200 0.67256
 0.62300 0.67196
 0.62400 0.67144
 0.62500 0.67088
 0.62600 0.67012
 0.62700 0.66916
 0.62800 0.66808
 0.62900 0.66704
 0.63000 0.66620
 0.63100 0.66552
 0.63200 0.66496
 0.63300 0.66436
 0.63400 0.66352
 0.63500 0.66252
 0.63600 0.66144
 0.63700 0.66040
 0.63800 0.65952
 0.63900 0.65888
 0.64000 0.65828
 0.64100 0.65764
 0.64200 0.65680
 0.64300 0.65580
 0.64400 0.65472
 0.64500 0.65372
 0.64600 0.65288
 0.64700 0.65228
 0.64800 0.65172
 0.64900 0.65108
 0.65000 0.65032
 0.65100 0.64936
 0.65200 0.64832
 0.65300 0.64740
 0.65400 0.64668
 0.65500 0.64612
 0.65600 0.64564
 0.65700 0.64508
 0.65800 0.64436
 0.65900 0.64344
 0.66000 0.64252
 0.66100 0.64164
 0.66200 0.64096
 0.66300 0.64044
 0.66400 0.63996
 0.66500 0.63936
 0.66600 0.63860
 0.66700 0.63768
 0.66800 0.63672
 0.66900 0.63588
 0.67000 0.63520
 0.67100 0.63464
 0.67200 0.63416
 0.67300 0.63356
 0.67400 0.63280
 0.67500 0.63192
 0.67600 0.63104
 0.67700 0.63024
 0.67800 0.62964
 0.67900 0.62916
 0.68000 0.62872
 0.68100 0.62820
 0.68200 0.62748
 0.68300 0.62668
 0.68400 0.62588
 0.68500 0.62520
 0.68600 0.62468
 0.68700 0.62428
 0.68800 0.62388
 0.68900 0.62332
 0.69000 0.62264
 0.69100 0.62184
 0.69200 0.62108
 0.69300 0.62044
 0.69400 0.61992
 0.69500 0.61956
 0.69600 0.61912
 0.69700 0.61864
 0.69800 0.61800
 0.69900 0.61724
 0.70000 0.61656
 0.70100 0.61596
 0.70200 0.61552
 0.70300 0.61516
 0.70400 0.61476
 0.70500 0.61424
 0.70600 0.61360
 0.70700 0.61288
 0.70800 0.61216
 0.70900 0.61160
 0.71000 0.61112
 0.71100 0.61072
 0.71200 0.61024
 0.71300 0.60964
 0.71400 0.60892
 0.71500 0.60812
 0.71600 0.60736
 0.71700 0.60676
 0.71800 0.60620
 0.71900 0.60572
 0.72000 0.60516
 0.72100 0.60448
 0.72200 0.60368
 0.72300 0.60288
 0.72400 0.60212
 0.72500 0.60152
 0.72600 0.60104
 0.72700 0.60056
 0.72800 0.60004
 0.72900 0.59940
 0.73000 0.59868
 0.73100 0.59800
 0.73200 0.59736
 0.73300 0.59688
 0.73400 0.59644
 0.73500 0.59604
 0.73600 0.59556
 0.73700 0.59496
 0.73800 0.59432
 0.73900 0.59368
 0.74000 0.59312
 0.74100 0.59264
 0.74200 0.59224
 0.74300 0.59184
 0.74400 0.59136
 0.74500 0.59076
 0.74600 0.59016
 0.74700 0.58952
 0.74800 0.58896
 0.74900 0.58852
 0.75000 0.58808
 0.75100 0.58764
 0.75200 0.58712
 0.75300 0.58652
 0.75400 0.58588
 0.75500 0.58528
 0.75600 0.58472
 0.75700 0.58424
 0.75800 0.58380
 0.75900 0.58332
 0.76000 0.58272
 0.76100 0.58212
 0.76200 0.58148
 0.76300 0.58088
 0.76400 0.58036
 0.76500 0.57988
 0.76600 0.57948
 0.76700 0.57900
 0.76800 0.57848
 0.76900 0.57792
 0.77000 0.57736
 0.77100 0.57684
 0.77200 0.57640
 0.77300 0.57600
 0.77400 0.57560
 0.77500 0.57516
 0.77600 0.57464
 0.77700 0.57412
 0.77800 0.57356
 0.77900 0.57308
 0.78000 0.57260
 0.78100 0.57220
 0.78200 0.57176
 0.78300 0.57124
 0.78400 0.57072
 0.78500 0.57016
 0.78600 0.56960
 0.78700 0.56912
 0.78800 0.56864
 0.78900 0.56820
 0.79000 0.56776
 0.79100 0.56724
 0.79200 0.56668
 0.79300 0.56616
 0.79400 0.56564
 0.79500 0.56512
 0.79600 0.56464
 0.79700 0.56416
 0.79800 0.56364
 0.79900 0.56312
 0.80000 0.56256
 0.80100 0.56204
 0.80200 0.56152
 0.80300 0.56100
 0.80400 0.56052
 0.80500 0.56000
 0.80600 0.55948
 0.80700 0.55896
 0.80800 0.55844
 0.80900 0.55792
 0.81000 0.55748
 0.81100 0.55700
 0.81200 0.55652
 0.81300 0.55600
 0.81400 0.55548
 0.81500 0.55496
 0.81600 0.55444
 0.81700 0.55392
 0.81800 0.55344
 0.81900 0.55292
 0.82000 0.55240
 0.82100 0.55184
 0.82200 0.55128
 0.82300 0.55072
 0.82400 0.55020
 0.82500 0.54968
 0.82600 0.54920
 0.82700 0.54868
 0.82800 0.54812
 0.82900 0.54756
 0.83000 0.54696
 0.83100 0.54640
 0.83200 0.54588
 0.83300 0.54540
 0.83400 0.54492
 0.83500 0.54440
 0.83600 0.54384
 0.83700 0.54324
 0.83800 0.54264
 0.83900 0.54208
 0.84000 0.54160
 0.84100 0.54112
 0.84200 0.54068
 0.84300 0.54016
 0.84400 0.53956
 0.84500 0.53896
 0.84600 0.53840
 0.84700 0.53788
 0.84800 0.53744
 0.84900 0.53704
 0.85000 0.53660
 0.85100 0.53608
 0.85200 0.53548
 0.85300 0.53488
 0.85400 0.53432
 0.85500 0.53384
 0.85600 0.53340
 0.85700 0.53296
 0.85800 0.53252
 0.85900 0.53196
 0.86000 0.53132
 0.86100 0.53068
 0.86200 0.53008
 0.86300 0.52956
 0.86400 0.52912
 0.86500 0.52864
 0.86600 0.52816
 0.86700 0.52756
 0.86800 0.52688
 0.86900 0.52624
 0.87000 0.52564
 0.87100 0.52512
 0.87200 0.52468
 0.87300 0.52420
 0.87400 0.52368
 0.87500 0.52304
 0.87600 0.52236
 0.87700 0.52168
 0.87800 0.52104
 0.87900 0.52052
 0.88000 0.52008
 0.88100 0.51964
 0.88200 0.51912
 0.88300 0.51848
 0.88400 0.51780
 0.88500 0.51712
 0.88600 0.51656
 0.88700 0.51608
 0.88800 0.51564
 0.88900 0.51516
 0.89000 0.51464
 0.89100 0.51400
 0.89200 0.51332
 0.89300 0.51264
 0.89400 0.51208
 0.89500 0.51164
 0.89600 0.51120
 0.89700 0.51076
 0.89800 0.51020
 0.89900 0.50956
 0.90000 0.50888
 0.90100 0.50828
 0.90200 0.50772
 0.90300 0.50728
 0.90400 0.50684
 0.90500 0.50636
 0.90600 0.50580
 0.90700 0.50512
 0.90800 0.50444
 0.90900 0.50380
 0.91000 0.50328
 0.91100 0.50280
 0.91200 0.50236
 0.91300 0.50184
 0.91400 0.50124
 0.91500 0.50056
 0.91600 0.49988
 0.91700 0.49924
 0.91800 0.49868
 0.91900 0.49820
 0.92000 0.49772
 0.92100 0.49720
 0.92200 0.49656
 0.92300 0.49588
 0.92400 0.49520
 0.92500 0.49460
 0.92600 0.49404
 0.92700 0.49356
 0.92800 0.49308
 0.92900 0.49252
 0.93000 0.49188
 0.93100 0.49120
 0.93200 0.49052
 0.93300 0.48988
 0.93400 0.48932
 0.93500 0.48880
 0.93600 0.48820
 0.93700 0.48760
 0.93800 0.48692
 0.93900 0.48620
 0.94000 0.48548
 0.94100 0.48484
 0.94200 0.48424
 0.94300 0.48368
 0.94400 0.48312
 0.94500 0.48248
 0.94600 0.48184
 0.94700 0.48120
 0.94800 0.48056
 0.94900 0.48000
 0.95000 0.47948
 0.95100 0.47896
 0.95200 0.47840
 0.95300 0.47780
 0.95400 0.47716
 0.95500 0.47652
 0.95600 0.47596
 0.95700 0.47540
 0.95800 0.47488
 0.95900 0.47432
 0.96000 0.47372
 0.96100 0.47312
 0.96200 0.47248
 0.96300 0.47188
 0.96400 0.47132
 0.96500 0.47076
 0.96600 0.47020
 0.96700 0.46960
 0.96800 0.46900
 0.96900 0.46836
 0.97000 0.46772
 0.97100 0.46712
 0.97200 0.46656
 0.97300 0.46596
 0.97400 0.46536
 0.97500 0.46472
 0.97600 0.46404
 0.97700 0.46336
 0.97800 0.46272
 0.97900 0.46212
 0.98000 0.46156
 0.98100 0.46096
 0.98200 0.46036
 0.98300 0.45968
 0.98400 0.45896
 0.98500 0.45832
 0.98600 0.45772
 0.98700 0.45716
 0.98800 0.45664
 0.98900 0.45612
 0.99000 0.45548
 0.99100 0.45484
 0.99200 0.45416
 0.99300 0.45348
 0.99400 0.45292
 0.99500 0.45240
 0.99600 0.45188
 0.99700 0.45132
 0.99800 0.45064
 0.99900 0.44992
 1.00000 0.44920
 1.00100 0.44856
 1.00200 0.44800
 1.00300 0.44752
 1.00400 0.44704
 1.00500 0.44648
 1.00600 0.44584
 1.00700 0.44512
 1.00800 0.44436
 1.00900 0.44372
 1.01000 0.44316
 1.01100 0.44268
 1.01200 0.44216
 1.01300 0.44160
 1.01400 0.44088
 1.01500 0.44012
 1.01600 0.43940
 1.01700 0.43872
 1.01800 0.43820
 1.01900 0.43776
 1.02000 0.43728
 1.02100 0.43668
 1.02200 0.43600
 1.02300 0.43520
 1.02400 0.43448
 1.02500 0.43384
 1.02600 0.43336
 1.02700 0.43292
 1.02800 0.43244
 1.02900 0.43188
 1.03000 0.43116
 1.03100 0.43040
 1.03200 0.42968
 1.03300 0.42908
 1.03400 0.42864
 1.03500 0.42820
 1.03600 0.42776
 1.03700 0.42716
 1.03800 0.42644
 1.03900 0.42568
 1.04000 0.42496
 1.04100 0.42432
 1.04200 0.42388
 1.04300 0.42344
 1.04400 0.42296
 1.04500 0.42236
 1.04600 0.42160
 1.04700 0.42080
 1.04800 0.42008
 1.04900 0.41952
 1.05000 0.41904
 1.05100 0.41864
 1.05200 0.41820
 1.05300 0.41756
 1.05400 0.41684
 1.05500 0.41604
 1.05600 0.41528
 1.05700 0.41468
 1.05800 0.41424
 1.05900 0.41380
 1.06000 0.41332
 1.06100 0.41268
 1.06200 0.41192
 1.06300 0.41112
 1.06400 0.41040
 1.06500 0.40984
 1.06600 0.40936
 1.06700 0.40896
 1.06800 0.40844
 1.06900 0.40780
 1.07000 0.40708
 1.07100 0.40628
 1.07200 0.40556
 1.07300 0.40496
 1.07400 0.40448
 1.07500 0.40404
 1.07600 0.40352
 1.07700 0.40288
 1.07800 0.40212
 1.07900 0.40128
 1.08000 0.40056
 1.08100 0.39992
 1.08200 0.39944
 1.08300 0.39896
 1.08400 0.39840
 1.08500 0.39772
 1.08600 0.39696
 1.08700 0.39616
 1.08800 0.39544
 1.08900 0.39484
 1.09000 0.39432
 1.09100 0.39388
 1.09200 0.39336
 1.09300 0.39272
 1.09400 0.39196
 1.09500 0.39120
 1.09600 0.39052
 1.09700 0.38992
 1.09800 0.38948
 1.09900 0.38904
