# Spinless fermions Hamiltonian with random disorder and nearest neighbour interactions
# L=8x8 (size), J=0.5 (hoping amplitude), V=0.5 (interaction), W/J=2 (disorder strength), N=30 (disorder realizations), T=25 (number of trajectories)
# Evolution of Imbalance in time (fTWA method)
# time t, Imbalance I

   0.00000000000000000   1.00000000000000000
   0.10000000000000001   0.99063024764480923
   0.20000000000000001   0.96412817303554565
   0.30000000000000004   0.92144969104477004
   0.40000000000000002   0.86412386427783361
   0.50000000000000000   0.79418505359067471
   0.59999999999999998   0.71407948404512200
   0.69999999999999996   0.62654979922624687
   0.79999999999999993   0.53450398121235998
   0.89999999999999991   0.44087746955105572
   0.99999999999999989   0.34849849990282572
   1.09999999999999987   0.25996627642172426
   1.19999999999999996   0.17754983031385796
   1.30000000000000004   0.10311282986180788
   1.40000000000000013   0.03806671285667417
   1.50000000000000022  -0.01664823736664647
   1.60000000000000031  -0.06055643759205776
   1.70000000000000040  -0.09361914210477022
   1.80000000000000049  -0.11618978990321065
   1.90000000000000058  -0.12895726002086721
   2.00000000000000044  -0.13288143764700083
   2.10000000000000053  -0.12912498075923629
   2.20000000000000062  -0.11898461615688717
   2.30000000000000071  -0.10382478886738433
   2.40000000000000080  -0.08501609678026659
   2.50000000000000089  -0.06388059101726447
   2.60000000000000098  -0.04164561153159304
   2.70000000000000107  -0.01940726975414781
   2.80000000000000115   0.00189600268976930
   2.90000000000000124   0.02150008606882944
   3.00000000000000133   0.03882271736155501
   3.10000000000000142   0.05346286075552212
   3.20000000000000151   0.06519278573842675
   3.30000000000000160   0.07394369256831598
   3.40000000000000169   0.07978589391063887
   3.50000000000000178   0.08290498432939111
   3.60000000000000187   0.08357587768511109
   3.70000000000000195   0.08213675682246761
   3.80000000000000204   0.07896468731390928
   3.90000000000000213   0.07445398651790591
   4.00000000000000178   0.06899774024674808
   4.10000000000000142   0.06297241087270992
   4.20000000000000107   0.05672536708969726
   4.30000000000000071   0.05056520348930296
   4.40000000000000036   0.04475470996034508
   4.50000000000000000   0.03950624529078366
   4.59999999999999964   0.03497917401523964
   4.69999999999999929   0.03127910541996165
   4.79999999999999893   0.02845893295873781
   4.89999999999999858   0.02652194658727597
   4.99999999999999822   0.02542732013495447
   5.09999999999999787   0.02509793612061947
   5.19999999999999751   0.02542997985639803
   5.29999999999999716   0.02630326246525293
   5.39999999999999680   0.02759106654746115
   5.49999999999999645   0.02916845311114158
   5.59999999999999609   0.03091837369402785
   5.69999999999999574   0.03273544990248304
   5.79999999999999538   0.03452775669726315
   5.89999999999999503   0.03621720876163648
   5.99999999999999467   0.03773917994051256
   6.09999999999999432   0.03904184483402417
   6.19999999999999396   0.04008558475134073
   6.29999999999999361   0.04084263813663346
   6.39999999999999325   0.04129698191825247
   6.49999999999999289   0.04144419512711359
   6.59999999999999254   0.04129090462725115
   6.69999999999999218   0.04085350099070201
   6.79999999999999183   0.04015611888504083
   6.89999999999999147   0.03922821848732765
   6.99999999999999112   0.03810224630055786
   7.09999999999999076   0.03681173852013988
   7.19999999999999041   0.03539001542865777
   7.29999999999999005   0.03386947608664425
   7.39999999999998970   0.03228144158346714
   7.49999999999998934   0.03065638818897892
   7.59999999999998899   0.02902426769556572
   7.69999999999998863   0.02741460589849604
   7.79999999999998828   0.02585631177583805
   7.89999999999998792   0.02437744565568269
   7.99999999999998757   0.02300526901681854
   8.09999999999998721   0.02176660130092253
   8.19999999999998685   0.02068806170846349
   8.29999999999998650   0.01979552831956758
   8.39999999999998614   0.01911231085990364
   8.49999999999998579   0.01865606663801111
   8.59999999999998543   0.01843515804728890
   8.69999999999998508   0.01844560638912212
   8.79999999999998472   0.01866976190855303
   8.89999999999998437   0.01907728221911389
   8.99999999999998401   0.01962822985765348
   9.09999999999998366   0.02027743473799789
   9.19999999999998330   0.02097898103914389
   9.29999999999998295   0.02168988339882183
   9.39999999999998259   0.02237255122097227
   9.49999999999998224   0.02299618481245091
   9.59999999999998188   0.02353749611998838
   9.69999999999998153   0.02398103395000241
   9.79999999999998117   0.02431914709953390
   9.89999999999998082   0.02455147759763202
   9.99999999999998046   0.02468391786562326
  10.09999999999998010   0.02472707042484195
  10.19999999999997975   0.02469434624582433
  10.29999999999997939   0.02459994740908553
  10.39999999999997904   0.02445712105497776
  10.49999999999997868   0.02427710905089625
  10.59999999999997833   0.02406903302568151
  10.69999999999997797   0.02384059077032903
  10.79999999999997762   0.02359907237170717
  10.89999999999997726   0.02335206098499129
  10.99999999999997691   0.02310735162830030
  11.09999999999997655   0.02287204995110378
  11.19999999999997620   0.02265127398700715
  11.29999999999997584   0.02244712273851317
  11.39999999999997549   0.02225846610207530
  11.49999999999997513   0.02208172444523666
  11.59999999999997478   0.02191235889711604
  11.69999999999997442   0.02174651995048405
  11.79999999999997407   0.02158229818150620
  11.89999999999997371   0.02142025165925206
  11.99999999999997335   0.02126316755786551
  12.09999999999997300   0.02111520342991569
  12.19999999999997264   0.02098058109771339
  12.29999999999997229   0.02086202185555705
  12.39999999999997193   0.02075925163896521
  12.49999999999997158   0.02066810750173521
  12.59999999999997122   0.02058078512641942
  12.69999999999997087   0.02048740015812625
  12.79999999999997051   0.02037844121630476
  12.89999999999997016   0.02024719815197609
  12.99999999999996980   0.02009118243746381
  13.09999999999996945   0.01991199984062995
  13.19999999999996909   0.01971388517453615
  13.29999999999996874   0.01950175869267743
  13.39999999999996838   0.01927981336831008
  13.49999999999996803   0.01905118997695474
  13.59999999999996767   0.01881854992868493
  13.69999999999996732   0.01858480640274627
  13.79999999999996696   0.01835331195850374
  13.89999999999996660   0.01812733337888572
  13.99999999999996625   0.01790922824504303
  14.09999999999996589   0.01769989255151543
  14.19999999999996554   0.01749869898640575
  14.29999999999996518   0.01730365502160388
  14.39999999999996483   0.01711135223868071
  14.49999999999996447   0.01691658498207455
  14.59999999999996412   0.01671197786545450
  14.69999999999996376   0.01648815668603111
  14.79999999999996341   0.01623478726673134
  14.89999999999996305   0.01594238575575727
  14.99999999999996270   0.01560446892196300
  15.09999999999996234   0.01521952330725129
  15.19999999999996199   0.01479236676717766
  15.29999999999996163   0.01433464537964884
  15.39999999999996128   0.01386438936996685
  15.49999999999996092   0.01340471058299757
  15.59999999999996056   0.01298180869030711
  15.69999999999996021   0.01262245541430467
  15.79999999999995985   0.01235111702586137
  15.89999999999995950   0.01218697812164418
  15.99999999999995914   0.01214132191587611
  16.09999999999995879   0.01221586386492661
  16.19999999999996021   0.01240252794814068
  16.29999999999996163   0.01268479082100202
  16.39999999999996305   0.01304026849863831
  16.49999999999996447   0.01344390938979442
  16.59999999999996589   0.01387109492617180
  16.69999999999996732   0.01430010163233789
  16.79999999999996874   0.01471360193753222
  16.89999999999997016   0.01509908591915393
  16.99999999999997158   0.01544820922119111
  17.09999999999997300   0.01575519327060967
  17.19999999999997442   0.01601458054381730
  17.29999999999997584   0.01621890349239054
  17.39999999999997726   0.01635701350908741
  17.49999999999997868   0.01641378076086365
  17.59999999999998010   0.01637150941940943
  17.69999999999998153   0.01621282271638342
  17.79999999999998295   0.01592420465936588
  17.89999999999998437   0.01549912247551396
  17.99999999999998579   0.01493984999354403
  18.09999999999998721   0.01425763923086977
  18.19999999999998863   0.01347143746579558
  18.29999999999999005   0.01260572046045672
  18.39999999999999147   0.01168808512073733
  18.49999999999999289   0.01074713342557135
  18.59999999999999432   0.00981094105608190
  18.69999999999999574   0.00890616923548005
  18.79999999999999716   0.00805772676624724
  18.89999999999999858   0.00728882033307265
  19.00000000000000000   0.00662119552363690
  19.10000000000000142   0.00607530932083749
  19.20000000000000284   0.00567011571400149
  19.30000000000000426   0.00542218106900604
  19.40000000000000568   0.00534403139054641
  19.50000000000000711   0.00544193769565078
  19.60000000000000853   0.00571365712450848
  19.70000000000000995   0.00614680510797078
  19.80000000000001137   0.00671844070225256
  19.90000000000001279   0.00739610741449690
  20.00000000000001421   0.00814011027953190
  20.10000000000001563   0.00890644865671691
  20.20000000000001705   0.00964973057998462
  20.30000000000001847   0.01032555716636265
  20.40000000000001990   0.01089218654748968
  20.50000000000002132   0.01131161604961323
  20.60000000000002274   0.01155051253944041
  20.70000000000002416   0.01158153340503453
  20.80000000000002558   0.01138535621675580
  20.90000000000002700   0.01095319874225034
  21.00000000000002842   0.01028910052115418
  21.10000000000002984   0.00941113040898323
  21.20000000000003126   0.00835106271200047
  21.30000000000003268   0.00715264423336584
  21.40000000000003411   0.00586892986389624
  21.50000000000003553   0.00455913428847840
  21.60000000000003695   0.00328518600034116
  21.70000000000003837   0.00210797469531151
  21.80000000000003979   0.00108335494617974
  21.90000000000004121   0.00025819777695435
  22.00000000000004263  -0.00033301126817467
  22.10000000000004405  -0.00067050710273182
  22.20000000000004547  -0.00075016343304564
  22.30000000000004690  -0.00058296282027026
  22.40000000000004832  -0.00019334322634063
  22.50000000000004974   0.00038306505120040
  22.60000000000005116   0.00110194889927429
  22.70000000000005258   0.00191311956957840
  22.80000000000005400   0.00276396271491664
  22.90000000000005542   0.00360372720615005
  23.00000000000005684   0.00438826727926921
  23.10000000000005826   0.00508425913353446
  23.20000000000005969   0.00567179257137430
  23.30000000000006111   0.00614473914072334
  23.40000000000006253   0.00650912434610411
  23.50000000000006395   0.00678037063003633
  23.60000000000006537   0.00698036510309673
  23.70000000000006679   0.00713490097654805
  23.80000000000006821   0.00727148018774372
  23.90000000000006963   0.00741715918661844
  24.00000000000007105   0.00759616604317935
  24.10000000000007248   0.00782731186563066
  24.20000000000007390   0.00812153290164530
  24.30000000000007532   0.00848007060917428
  24.40000000000007674   0.00889376146215752
  24.50000000000007816   0.00934370061077972
  24.60000000000007958   0.00980325253275085
  24.70000000000008100   0.01024110444979433
  24.80000000000008242   0.01062482413451013
  24.90000000000008384   0.01092426723792284
  25.00000000000008527   0.01111426304456392
  25.10000000000008669   0.01117625053651052
  25.20000000000008811   0.01109879877882401
  25.30000000000008953   0.01087714504108783
  25.40000000000009095   0.01051206394876449
  25.50000000000009237   0.01000863869385878
  25.60000000000009379   0.00937568111642504
  25.70000000000009521   0.00862636999083091
  25.80000000000009663   0.00777999178026176
  25.90000000000009805   0.00686382911135761
  26.00000000000009948   0.00591384643339444
  26.10000000000010090   0.00497320836635114
  26.20000000000010232   0.00408859940062988
  26.30000000000010374   0.00330517774132411
  26.40000000000010516   0.00266139129384388
  26.50000000000010658   0.00218477290983705
  26.60000000000010800   0.00188945524214041
  26.70000000000010942   0.00177570391416242
  26.80000000000011084   0.00183135338562326
  26.90000000000011227   0.00203468144306459
  27.00000000000011369   0.00235803557676982
  27.10000000000011511   0.00277147067596023
  27.20000000000011653   0.00324581783195780
  27.30000000000011795   0.00375488729376716
  27.40000000000011937   0.00427682429772603
  27.50000000000012079   0.00479479486098841
  27.60000000000012221   0.00529713152376667
  27.70000000000012363   0.00577693982943027
  27.80000000000012506   0.00623117607933775
  27.90000000000012648   0.00665943736330559
  28.00000000000012790   0.00706294425226427
  28.10000000000012932   0.00744413578881964
  28.20000000000013074   0.00780686944326849
  28.30000000000013216   0.00815672809010795
  28.40000000000013358   0.00850076154037016
  28.50000000000013500   0.00884625963612646
  28.60000000000013642   0.00919867113642192
  28.70000000000013785   0.00955924194522888
  28.80000000000013927   0.00992311890928981
  28.90000000000014069   0.01027854577006030
  29.00000000000014211   0.01060744985745426
  29.10000000000014353   0.01088732810852808
  29.20000000000014495   0.01109400764610610
  29.30000000000014637   0.01120465126044061
  29.40000000000014779   0.01120038715584105
  29.50000000000014921   0.01106818788223928
  29.60000000000015064   0.01080199009773278
  29.70000000000015206   0.01040328556536973
  29.80000000000015348   0.00988138412580506
  29.90000000000015490   0.00925332078943368
  30.00000000000015632   0.00854318343254949
  30.10000000000015774   0.00778061899804941
  30.20000000000015916   0.00699843385221756
  30.30000000000016058   0.00622950950001036
  30.40000000000016200   0.00550357384425783
  30.50000000000016342   0.00484457460597097
  30.60000000000016485   0.00426931264639329
  30.70000000000016627   0.00378759788925405
  30.80000000000016769   0.00340364372397005
  30.90000000000016911   0.00311803079787479
  31.00000000000017053   0.00292951319987909
  31.10000000000017195   0.00283619689041956
  31.20000000000017337   0.00283595800471839
  31.30000000000017479   0.00292621963899520
  31.40000000000017621   0.00310330517896047
  31.50000000000017764   0.00336158359044779
  31.60000000000017906   0.00369257020591569
  31.70000000000018048   0.00408413788392011
  31.80000000000018190   0.00452003309702797
  31.90000000000018332   0.00497991609142003
  32.00000000000018474   0.00544008910244730
  32.10000000000018616   0.00587491539343206
  32.20000000000018758   0.00625874639666479
  32.30000000000018900   0.00656806327901563
  32.40000000000019043   0.00678353919474255
  32.50000000000019185   0.00689178986147170
  32.60000000000019327   0.00688667370623765
  32.70000000000019469   0.00677005267209436
  32.80000000000019611   0.00655192469094689
  32.90000000000019753   0.00624981570587736
  33.00000000000019895   0.00588734899942586
  33.10000000000020037   0.00549204302627652
  33.20000000000020179   0.00509259666331690
  33.30000000000020322   0.00471606756839949
  33.40000000000020464   0.00438536026648034
  33.50000000000020606   0.00411733436188872
  33.60000000000020748   0.00392171147254177
  33.70000000000020890   0.00380080017552017
  33.80000000000021032   0.00374990809455804
  33.90000000000021174   0.00375825408305136
  34.00000000000021316   0.00381027286776823
  34.10000000000021458   0.00388731688490447
  34.20000000000021600   0.00396973119431823
  34.30000000000021743   0.00403910424383277
  34.40000000000021885   0.00408033696407803
  34.50000000000022027   0.00408318146986452
  34.60000000000022169   0.00404305556246941
  34.70000000000022311   0.00396112226902504
  34.80000000000022453   0.00384374804049894
  34.90000000000022595   0.00370148714278280
  35.00000000000022737   0.00354772650213308
  35.10000000000022879   0.00339710751236087
  35.20000000000023022   0.00326384308155736
  35.30000000000023164   0.00316009227465477
  35.40000000000023306   0.00309462138388054
  35.50000000000023448   0.00307200206024235
  35.60000000000023590   0.00309252123318287
  35.70000000000023732   0.00315280906722430
  35.80000000000023874   0.00324701579388572
  35.90000000000024016   0.00336824480314564
  36.00000000000024158   0.00350986069176441
  36.10000000000024301   0.00366629380447275
  36.20000000000024443   0.00383310442133965
  36.30000000000024585   0.00400638563738542
  36.40000000000024727   0.00418191830854849
  36.50000000000024869   0.00435462802518805
  36.60000000000025011   0.00451873138166258
  36.70000000000025153   0.00466858143801007
  36.80000000000025295   0.00479985905182449
  36.90000000000025437   0.00491057677818949
  37.00000000000025580   0.00500145084575009
  37.10000000000025722   0.00507547984871758
  37.20000000000025864   0.00513692155019172
  37.30000000000026006   0.00519006858596719
  37.40000000000026148   0.00523822141768274
  37.50000000000026290   0.00528307420462547
  37.60000000000026432   0.00532455636197475
  37.70000000000026574   0.00536107290743959
  37.80000000000026716   0.00539005843847279
  37.90000000000026859   0.00540869732185617
  38.00000000000027001   0.00541455095681699
  38.10000000000027143   0.00540573041841485
  38.20000000000027285   0.00538028758669273
  38.30000000000027427   0.00533481690454717
  38.40000000000027569   0.00526276795868459
  38.50000000000027711   0.00515338214644271
  38.60000000000027853   0.00499215422251253
  38.70000000000027995   0.00476320295794524
  38.80000000000028137   0.00445311157779876
  38.90000000000028280   0.00405515146410968
  39.00000000000028422   0.00357262138212059
  39.10000000000028564   0.00302038743320354
  39.20000000000028706   0.00242431392778690
  39.30000000000028848   0.00181878643158474
  39.40000000000028990   0.00124278722249243
  39.50000000000029132   0.00073509828585233
  39.60000000000029274   0.00032935250287779
  39.70000000000029416   0.00004982410970706
  39.80000000000029559  -0.00009117761420423
  39.90000000000029701  -0.00009381848731666
  40.00000000000029843   0.00003071041304219
  40.10000000000029985   0.00026293327520685
  40.20000000000030127   0.00057830156889611
  40.30000000000030269   0.00095032157205331
  40.40000000000030411   0.00135343605456239
  40.50000000000030553   0.00176570701057860
  40.60000000000030695   0.00217123091329599
  40.70000000000030838   0.00256191849565529
  40.80000000000030980   0.00293811237209655
  40.90000000000031122   0.00330767866757494
  41.00000000000031264   0.00368366836682465
  41.10000000000031406   0.00408110592115296
  41.20000000000031548   0.00451367797499134
  41.30000000000031690   0.00499098606133544
  41.40000000000031832   0.00551672508316593
  41.50000000000031974   0.00608785903482417
  41.60000000000032117   0.00669467980425431
  41.70000000000032259   0.00732157873139931
  41.80000000000032401   0.00794838199853535
  41.90000000000032543   0.00855212308689190
  42.00000000000032685   0.00910911125755212
  42.10000000000032827   0.00959709041253303
  42.20000000000032969   0.00999721324399925
  42.30000000000033111   0.01029556234495277
  42.40000000000033253   0.01048407255811029
  42.50000000000033396   0.01056087384592967
  42.60000000000033538   0.01053019088294892
