# Spinless fermions Hamiltonian with random disorder and nearest neighbour interactions
# L=8x8 (size), J=0.5 (hoping amplitude), V=0.5 (interaction), W/J=10 (disorder strength), N=30 (disorder realizations), T=25 (number of trajectories)
# Evolution of Imbalance in time with filter (fTWA method)
# time t, Imbalance I

   0.00000000000000000   1.00000000000000000
   0.10000000000000001   0.99080145193780300
   0.20000000000000001   0.96610918514430355
   0.30000000000000004   0.93004950764863592
   0.40000000000000002   0.88769583683005571
   0.50000000000000000   0.84346693370792458
   0.59999999999999998   0.80014251028907013
   0.69999999999999996   0.75879994235851655
   0.79999999999999993   0.71945231861574221
   0.89999999999999991   0.68184935242279854
   0.99999999999999989   0.64597754182519995
   1.09999999999999987   0.61213062722605061
   1.19999999999999996   0.58071273468899187
   1.30000000000000004   0.55201771650408937
   1.40000000000000013   0.52612913081259161
   1.50000000000000022   0.50293945740857737
   1.60000000000000031   0.48222631159247614
   1.70000000000000040   0.46374772578550133
   1.80000000000000049   0.44733612613668983
   1.90000000000000058   0.43295944296179650
   2.00000000000000044   0.42071321507332460
   2.10000000000000053   0.41073001000191417
   2.20000000000000062   0.40304725050521650
   2.30000000000000071   0.39751479964375697
   2.40000000000000080   0.39379131252050176
   2.50000000000000089   0.39141962976569822
   2.60000000000000098   0.38995239369806695
   2.70000000000000107   0.38908349571525391
   2.80000000000000115   0.38871588219866771
   2.90000000000000124   0.38892360295589373
   3.00000000000000133   0.38983644737355555
   3.10000000000000142   0.39151162703614151
   3.20000000000000151   0.39385149629896932
   3.30000000000000160   0.39661123650399221
   3.40000000000000169   0.39949897093000014
   3.50000000000000178   0.40230456688534416
   3.60000000000000187   0.40496582978254808
   3.70000000000000195   0.40753479153626720
   3.80000000000000204   0.41009164306896762
   3.90000000000000213   0.41268017463089463
   4.00000000000000178   0.41529655424448236
   4.10000000000000142   0.41791411854517857
   4.20000000000000107   0.42051098150458482
   4.30000000000000071   0.42308009261724555
   4.40000000000000036   0.42562240258471146
   4.50000000000000000   0.42813623463261458
   4.59999999999999964   0.43061196992158263
   4.69999999999999929   0.43303119262707834
   4.79999999999999893   0.43536981489810617
   4.89999999999999858   0.43760880243331968
   4.99999999999999822   0.43974741558144503
   5.09999999999999787   0.44180516939276865
   5.19999999999999751   0.44380529495396998
   5.29999999999999716   0.44574399279916110
   5.39999999999999680   0.44756652120206097
   5.49999999999999645   0.44917858773817615
   5.59999999999999609   0.45048789694330338
   5.69999999999999574   0.45143489731875569
   5.79999999999999538   0.45199557996927175
   5.89999999999999503   0.45217817903296087
   5.99999999999999467   0.45202182162057070
   6.09999999999999432   0.45157612601128910
   6.19999999999999396   0.45085522038740594
   6.29999999999999361   0.44980204234851218
   6.39999999999999325   0.44831195194669221
   6.49999999999999289   0.44631702666467316
   6.59999999999999254   0.44387007788120308
   6.69999999999999218   0.44116203103180035
   6.79999999999999183   0.43845313201758229
   6.89999999999999147   0.43595016010338872
   6.99999999999999112   0.43369978473499404
   7.09999999999999076   0.43157173180021369
   7.19999999999999041   0.42934745529393670
   7.29999999999999005   0.42685114069249136
   7.39999999999998970   0.42403860555746042
   7.49999999999998934   0.42100466268295728
   7.59999999999998899   0.41792758505480188
   7.69999999999998863   0.41499131226195102
   7.79999999999998828   0.41231234581824849
   7.89999999999998792   0.40989727109432933
   7.99999999999998757   0.40766293993343866
   8.09999999999998721   0.40551326602601140
   8.19999999999998685   0.40341915431806064
   8.29999999999998650   0.40145066506567251
   8.39999999999998614   0.39973776972976027
   8.49999999999998579   0.39836594525732033
   8.59999999999998543   0.39726781756315133
   8.69999999999998508   0.39620998137078245
   8.79999999999998472   0.39491442852771974
   8.89999999999998437   0.39323162818904028
   8.99999999999998401   0.39122823983626526
   9.09999999999998366   0.38912481726895998
   9.19999999999998330   0.38714520519262308
   9.29999999999998295   0.38540529343539431
   9.39999999999998259   0.38391685835675138
   9.49999999999998224   0.38266535041707511
   9.59999999999998188   0.38166440264136325
   9.69999999999998153   0.38093955467328383
   9.79999999999998117   0.38047023339818692
   9.89999999999998082   0.38015197009861101
   9.99999999999998046   0.37982729252930914
  10.09999999999998010   0.37938119052172359
  10.19999999999997975   0.37882993614446947
  10.29999999999997939   0.37832386141906249
  10.39999999999997904   0.37806171467711214
  10.49999999999997868   0.37818918901308546
  10.59999999999997833   0.37874537884653331
  10.69999999999997797   0.37966220834756437
  10.79999999999997762   0.38079449885815991
  10.89999999999997726   0.38196596643165343
  10.99999999999997691   0.38301481333461995
  11.09999999999997655   0.38382551300162787
  11.19999999999997620   0.38435394396129663
  11.29999999999997584   0.38464662597219257
  11.39999999999997549   0.38482834767835211
  11.49999999999997513   0.38504581532333576
  11.59999999999997478   0.38539562910484920
  11.69999999999997442   0.38587421316427611
  11.79999999999997407   0.38636703420448287
  11.89999999999997371   0.38668565067484351
  11.99999999999997335   0.38665337963668706
  12.09999999999997300   0.38620019760079100
  12.19999999999997264   0.38539956020669447
  12.29999999999997229   0.38442189978437619
  12.39999999999997193   0.38344800831222930
  12.49999999999997158   0.38260628858539025
  12.59999999999997122   0.38195947224352739
  12.69999999999997087   0.38151269904853591
  12.79999999999997051   0.38120734382675647
  12.89999999999997016   0.38091287205559843
  12.99999999999996980   0.38046309276043788
  13.09999999999996945   0.37974678905428377
  13.19999999999996909   0.37879134130564163
  13.29999999999996874   0.37775763665538414
  13.39999999999996838   0.37683651075898233
  13.49999999999996803   0.37613088844889914
  13.59999999999996767   0.37561155242320765
  13.69999999999996732   0.37515665199521525
  13.79999999999996696   0.37462591369585324
  13.89999999999996660   0.37391533046537706
  13.99999999999996625   0.37296345669870029
  14.09999999999996589   0.37172776802867891
  14.19999999999996554   0.37018632356564485
  14.29999999999996518   0.36838755671144552
  14.39999999999996483   0.36649486839267359
  14.49999999999996447   0.36475835445513022
  14.59999999999996412   0.36341547215103148
  14.69999999999996376   0.36258485794874812
  14.79999999999996341   0.36221738013877008
  14.89999999999996305   0.36213046517019476
  14.99999999999996270   0.36210355580166620
  15.09999999999996234   0.36197453090953341
  15.19999999999996199   0.36167843845971892
  15.29999999999996163   0.36121453989973590
  15.39999999999996128   0.36058575195937503
  15.49999999999996092   0.35977761243950857
  15.59999999999996056   0.35879586328058821
  15.69999999999996021   0.35770827987544729
  15.79999999999995985   0.35663839352826077
  15.89999999999995950   0.35572503624779134
  15.99999999999995914   0.35507933273033626
  16.09999999999995879   0.35474038394560631
  16.19999999999996021   0.35463939187941357
  16.29999999999996163   0.35461292509977149
  16.39999999999996305   0.35448701381819925
  16.49999999999996447   0.35419616786482400
  16.59999999999996589   0.35385778217606167
  16.69999999999996732   0.35372917966121342
  16.79999999999996874   0.35405209132410731
  16.89999999999997016   0.35488357866183801
  16.99999999999997158   0.35602810272364094
  17.09999999999997300   0.35711901701860693
  17.19999999999997442   0.35781129287200975
  17.29999999999997584   0.35797149570859194
  17.39999999999997726   0.35773462853688520
  17.49999999999997868   0.35739059102635973
  17.59999999999998010   0.35718979767832781
  17.69999999999998153   0.35720207033016693
  17.79999999999998295   0.35731294480566000
  17.89999999999998437   0.35733989185322812
  17.99999999999998579   0.35716617860329580
  18.09999999999998721   0.35679747569945480
  18.19999999999998863   0.35632735226019746
  18.29999999999999005   0.35585816810101606
  18.39999999999999147   0.35542858546643386
  18.49999999999999289   0.35498662438426565
  18.59999999999999432   0.35442903411381399
  18.69999999999999574   0.35368349454611220
  18.79999999999999716   0.35277000449398105
  18.89999999999999858   0.35179214514508217
  19.00000000000000000   0.35086244318444049
  19.10000000000000142   0.35000889549430558
  19.20000000000000284   0.34912844605613380
  19.30000000000000426   0.34804298492151770
  19.40000000000000568   0.34664468656047470
  19.50000000000000711   0.34502032552637735
  19.60000000000000853   0.34343967248647223
  19.70000000000000995   0.34221267966115004
  19.80000000000001137   0.34152307114919250
  19.90000000000001279   0.34134160054260293
  20.00000000000001421   0.34245838729457861
  20.10000000000001563   0.34182642546154057
  20.20000000000001705   0.34123855316980395
  20.30000000000001847   0.34069784173152523
  20.40000000000001990   0.34020442627759306
  20.50000000000002132   0.33975413880262306
  20.60000000000002274   0.33933755952738542
  20.70000000000002416   0.33894096157981563
  20.80000000000002558   0.33854956968330496
  20.90000000000002700   0.33815119844099284
  21.00000000000002842   0.33773789727050585
  21.10000000000002984   0.33730523782713806
  21.20000000000003126   0.33685088769142224
  21.30000000000003268   0.33637423002552541
  21.40000000000003411   0.33587722100336626
  21.50000000000003553   0.33536523391534795
  21.60000000000003695   0.33484663808421555
  21.70000000000003837   0.33433083163322691
  21.80000000000003979   0.33382541976839014
  21.90000000000004121   0.33333378486222492
  22.00000000000004263   0.33285417977770188
  22.10000000000004405   0.33238080501587652
  22.20000000000004547   0.33190662407800164
  22.30000000000004690   0.33142698720499886
  22.40000000000004832   0.33094235800173855
  22.50000000000004974   0.33045837220777663
  22.60000000000005116   0.32998298458379011
  22.70000000000005258   0.32952247865032680
  22.80000000000005400   0.32907861788544812
  22.90000000000005542   0.32864827966706944
  23.00000000000005684   0.32822568351808651
  23.10000000000005826   0.32780575506144194
  23.20000000000005969   0.32738606905924372
  23.30000000000006111   0.32696612489598520
  23.40000000000006253   0.32654531367043660
  23.50000000000006395   0.32612182003088896
  23.60000000000006537   0.32569358883406002
  23.70000000000006679   0.32526073076309325
  23.80000000000006821   0.32482714977747229
  23.90000000000006963   0.32439928699278892
  24.00000000000007105   0.32398257632440008
  24.10000000000007248   0.32357889894322628
  24.20000000000007390   0.32318769360771926
  24.30000000000007532   0.32280990720009417
  24.40000000000007674   0.32245113384073326
  24.50000000000007816   0.32212080158157058
  24.60000000000007958   0.32182775128301344
  24.70000000000008100   0.32157567347435734
  24.80000000000008242   0.32136169458076158
  24.90000000000008384   0.32117862624806104
  25.00000000000008527   0.32101878510196175
  25.10000000000008669   0.32087670449815286
  25.20000000000008811   0.32074949373602230
  25.30000000000008953   0.32063532041873544
  25.40000000000009095   0.32053101253165694
  25.50000000000009237   0.32042991853830349
  25.60000000000009379   0.32032148057600640
  25.70000000000009521   0.32019318838446231
  25.80000000000009663   0.32003400580132590
  25.90000000000009805   0.31983782449536557
  26.00000000000009948   0.31960581532947363
  26.10000000000010090   0.31934648069041038
  26.20000000000010232   0.31907238476608979
  26.30000000000010374   0.31879427772961200
  26.40000000000010516   0.31851570897772657
  26.50000000000010658   0.31823161411705769
  26.60000000000010800   0.31793184550970455
  26.70000000000010942   0.31760713490266279
  26.80000000000011084   0.31725322357374486
  26.90000000000011227   0.31687037216517322
  27.00000000000011369   0.31645924551178606
  27.10000000000011511   0.31601702377087293
  27.20000000000011653   0.31553702215066015
  27.30000000000011795   0.31501208767253386
  27.40000000000011937   0.31443938880229022
  27.50000000000012079   0.31382347248006376
  27.60000000000012221   0.31317571991623172
  27.70000000000012363   0.31251080402875242
  27.80000000000012506   0.31184259819920745
  27.90000000000012648   0.31118178097994154
  28.00000000000012790   0.31053586266970307
  28.10000000000012932   0.30991090837906571
  28.20000000000013074   0.30931346447390595
  28.30000000000013216   0.30875148020641685
  28.40000000000013358   0.30823389855830363
  28.50000000000013500   0.30776918614039162
  28.60000000000013642   0.30736351008466478
  28.70000000000013785   0.30701948450490857
  28.80000000000013927   0.30673588910886768
  28.90000000000014069   0.30650841315631777
  29.00000000000014211   0.30633160344829485
  29.10000000000014353   0.30620146910645329
  29.20000000000014495   0.30611708973550000
  29.30000000000014637   0.30607975399214138
  29.40000000000014779   0.30608944687952439
  29.50000000000014921   0.30614013397683326
  29.60000000000015064   0.30621675078806943
  29.70000000000015206   0.30629646478348055
  29.80000000000015348   0.30635398152677956
  29.90000000000015490   0.30636800226014593
  30.00000000000015632   0.30954426597683954
  30.10000000000015774   0.30922419063839013
  30.20000000000015916   0.30890442428072218
  30.30000000000016058   0.30858507724830453
  30.40000000000016200   0.30826599294862578
  30.50000000000016342   0.30794664990703635
  30.60000000000016485   0.30762630066530339
  30.70000000000016627   0.30730421544738973
  30.80000000000016769   0.30697988989713088
  30.90000000000016911   0.30665315058924680
  31.00000000000017053   0.30632414748863274
  31.10000000000017195   0.30599326889338607
  31.20000000000017337   0.30566102908298309
  31.30000000000017479   0.30532794000189212
  31.40000000000017621   0.30499436905612765
  31.50000000000017764   0.30466043810754012
  31.60000000000017906   0.30432603899356137
  31.70000000000018048   0.30399097753228987
  31.80000000000018190   0.30365517411486098
  31.90000000000018332   0.30331882169556623
  32.00000000000018474   0.30298243297470950
  32.10000000000018616   0.30264675326567836
  32.20000000000018758   0.30231256968628395
  32.30000000000018900   0.30198051179895957
  32.40000000000019043   0.30165095402487141
  32.50000000000019185   0.30132405472800572
  32.60000000000019327   0.30099985207465535
  32.70000000000019469   0.30067829443713051
  32.80000000000019611   0.30035917914391808
  32.90000000000019753   0.30004210832496425
  33.00000000000019895   0.29972657381527240
  33.10000000000020037   0.29941215480252081
  33.20000000000020179   0.29909870456412441
  33.30000000000020322   0.29878640214016861
  33.40000000000020464   0.29847563563345625
  33.50000000000020606   0.29816680269534790
  33.60000000000020748   0.29786015961146323
  33.70000000000020890   0.29755578895652479
  33.80000000000021032   0.29725366639139000
  33.90000000000021174   0.29695375553622749
  34.00000000000021316   0.29665605773772097
  34.10000000000021458   0.29636059968645467
  34.20000000000021600   0.29606740885295202
  34.30000000000021743   0.29577651246520609
  34.40000000000021885   0.29548792091160125
  34.50000000000022027   0.29520154701239765
  34.60000000000022169   0.29491709273958422
  34.70000000000022311   0.29463399506251187
  34.80000000000022453   0.29435150028225238
  34.90000000000022595   0.29406886447718972
  35.00000000000022737   0.29378559367859125
  35.10000000000022879   0.29350158718443797
  35.20000000000023022   0.29321709575614135
  35.30000000000023164   0.29293253695814675
  35.40000000000023306   0.29264830620217724
  35.50000000000023448   0.29236469898895856
  35.60000000000023590   0.29208194804458970
  35.70000000000023732   0.29180027795110702
  35.80000000000023874   0.29151988064642165
  35.90000000000024016   0.29124080798164170
  36.00000000000024158   0.29096285793452981
  36.10000000000024301   0.29068555050968020
  36.20000000000024443   0.29040826338890025
  36.30000000000024585   0.29013050297461096
  36.40000000000024727   0.28985214745388255
  36.50000000000024869   0.28957346160184150
  36.60000000000025011   0.28929482534672568
  36.70000000000025153   0.28901633293546158
  36.80000000000025295   0.28873754460126899
  36.90000000000025437   0.28845759636899848
  37.00000000000025580   0.28817562200706304
  37.10000000000025722   0.28789121758563396
  37.20000000000025864   0.28760466023916859
  37.30000000000026006   0.28731675679259194
  37.40000000000026148   0.28702842927531436
  37.50000000000026290   0.28674030753182578
  37.60000000000026432   0.28645257080444353
  37.70000000000026574   0.28616509527140649
  37.80000000000026716   0.28587777305505002
  37.90000000000026859   0.28559076439955355
  38.00000000000027001   0.28530449522576884
  38.10000000000027143   0.28501942116642298
  38.20000000000027285   0.28473576823213292
  38.30000000000027427   0.28445344728770033
  38.40000000000027569   0.28417217901717656
  38.50000000000027711   0.28389173039010324
  38.60000000000027853   0.28361211689237814
  38.70000000000027995   0.28333364580492010
  38.80000000000028137   0.28305676220356846
  38.90000000000028280   0.28278178987139224
  39.00000000000028422   0.28250874534498283
  39.10000000000028564   0.28223736375643327
  39.20000000000028706   0.28196733518286532
  39.30000000000028848   0.28169861210248259
  39.40000000000028990   0.28143158647520461
  39.50000000000029132   0.28116698735907891
  39.60000000000029274   0.28090552432851679
  39.70000000000029416   0.28064749005041334
  39.80000000000029559   0.28039256597650558
  39.90000000000029701   0.28013992751397188
  40.00000000000029843   0.27988856064635181
  40.10000000000029985   0.27963760312831720
  40.20000000000030127   0.27938654843499994
  40.30000000000030269   0.27913525979501602
  40.40000000000030411   0.27888384699615909
  40.50000000000030553   0.27863250858459543
  40.60000000000030695   0.27838142373646324
  40.70000000000030838   0.27813070717915056
  40.80000000000030980   0.27788039104007956
  40.90000000000031122   0.27763041640288005
  41.00000000000031264   0.27738064523844119
  41.10000000000031406   0.27713089833800025
  41.20000000000031548   0.27688102627199518
  41.30000000000031690   0.27663101863505146
  41.40000000000031832   0.27638110307286307
  41.50000000000031974   0.27613173654502138
  41.60000000000032117   0.27588344104302664
  41.70000000000032259   0.27563654898360640
  41.80000000000032401   0.27539099537558898
  41.90000000000032543   0.27514629339909796
  42.00000000000032685   0.27490176109008779
  42.10000000000032827   0.27465691251330959
  42.20000000000032969   0.27441177101549663
  42.30000000000033111   0.27416687884408986
  42.40000000000033253   0.27392298334627646
  42.50000000000033396   0.27368060505490338
  42.60000000000033538   0.27343977323415264
