# XXZ chain with NNN perturbation
# L = 28, S_z^tot = 4, J = 1, Delta = 0.5, g = 0.15
# Time dependence of normalized energy current autocorrelation function
# tJ, C_kappa(t)


0.000000000000000000e+00 1.000000000000000000e+00
1.000000000000000000e+00 9.954024347072715218e-01
2.000000000000000000e+00 9.860547545043409912e-01
3.000000000000000000e+00 9.756494643295381408e-01
4.000000000000000000e+00 9.651322158632531512e-01
5.000000000000000000e+00 9.553351608003709527e-01
6.000000000000000000e+00 9.463494100216978122e-01
7.000000000000000000e+00 9.379877364224703529e-01
8.000000000000000000e+00 9.300787857203461906e-01
9.000000000000000000e+00 9.224919155183199937e-01
1.000000000000000000e+01 9.151453211791363840e-01
1.100000000000000000e+01 9.079908259772727641e-01
1.200000000000000000e+01 9.009985585001555330e-01
1.300000000000000000e+01 8.941479393929782082e-01
1.400000000000000000e+01 8.874289497561788087e-01
1.500000000000000000e+01 8.808400638687861051e-01
1.600000000000000000e+01 8.743801043608038226e-01
1.700000000000000000e+01 8.680407868474014910e-01
1.800000000000000000e+01 8.618143552231657400e-01
1.900000000000000000e+01 8.556950630693817006e-01
2.000000000000000000e+01 8.496844901603771705e-01
2.100000000000000000e+01 8.437862733313972186e-01
2.200000000000000000e+01 8.380015043839109667e-01
2.300000000000000000e+01 8.323299955868569411e-01
2.400000000000000000e+01 8.267672724328855027e-01
2.500000000000000000e+01 8.213113533352269791e-01
2.600000000000000000e+01 8.159593197324122027e-01
2.700000000000000000e+01 8.107036301150166713e-01
2.800000000000000000e+01 8.055354945693999902e-01
2.900000000000000000e+01 8.004477843003502402e-01
3.000000000000000000e+01 7.954344268879846025e-01
3.100000000000000000e+01 7.904900305005155836e-01
3.200000000000000000e+01 7.856083096729353787e-01
3.300000000000000000e+01 7.807855597636139677e-01
3.400000000000000000e+01 7.760160036236589676e-01
3.500000000000000000e+01 7.712962656635343750e-01
3.600000000000000000e+01 7.666263939825449514e-01
3.700000000000000000e+01 7.620029081301100682e-01
3.800000000000000000e+01 7.574222869595510499e-01
3.900000000000000000e+01 7.528816725493496786e-01
4.000000000000000000e+01 7.483808377377186849e-01
4.100000000000000000e+01 7.439224494231764240e-01
4.200000000000000000e+01 7.395052051028968565e-01
4.300000000000000000e+01 7.351310354903008992e-01
4.400000000000000000e+01 7.308019642864149734e-01
4.500000000000000000e+01 7.265174051867051563e-01
4.600000000000000000e+01 7.222766488793535000e-01
4.700000000000000000e+01 7.180752481645960028e-01
4.800000000000000000e+01 7.139095121780437703e-01
4.900000000000000000e+01 7.097771103003093218e-01
5.000000000000000000e+01 7.056773007523337027e-01
5.100000000000000000e+01 7.016110920928182448e-01
5.200000000000000000e+01 6.975770593527321761e-01
5.300000000000000000e+01 6.935747906040714561e-01
5.400000000000000000e+01 6.896046277265776014e-01
5.500000000000000000e+01 6.856674959138071568e-01
5.600000000000000000e+01 6.817634471592578516e-01
5.700000000000000000e+01 6.778923104804793764e-01
5.800000000000000000e+01 6.740508465003662852e-01
5.900000000000000000e+01 6.702347597711102445e-01
6.000000000000000000e+01 6.664399976547822346e-01
6.100000000000000000e+01 6.626678150346462237e-01
6.200000000000000000e+01 6.589193270073412378e-01
6.300000000000000000e+01 6.551970494173762205e-01
6.400000000000000000e+01 6.515024902447710264e-01
6.500000000000000000e+01 6.478327939922151613e-01
6.600000000000000000e+01 6.441872931892272947e-01
6.700000000000000000e+01 6.405688918801377696e-01
6.800000000000000000e+01 6.369782467847692198e-01
6.900000000000000000e+01 6.334139905326549025e-01
7.000000000000000000e+01 6.298763258732870129e-01
7.100000000000000000e+01 6.263667525092891930e-01
7.200000000000000000e+01 6.228843098927338007e-01
7.300000000000000000e+01 6.194294189357655300e-01
7.400000000000000000e+01 6.160055087302352961e-01
7.500000000000000000e+01 6.126121899884992006e-01
7.600000000000000000e+01 6.092442814926426475e-01
7.700000000000000000e+01 6.059000383374524290e-01
7.800000000000000000e+01 6.025798920902815103e-01
7.900000000000000000e+01 5.992838159898803418e-01
8.000000000000000000e+01 5.960132132535781446e-01
8.100000000000000000e+01 5.927660055470647116e-01
8.200000000000000000e+01 5.895394190271397994e-01
8.300000000000000000e+01 5.863313395491485114e-01
8.400000000000000000e+01 5.831412052089400833e-01
8.500000000000000000e+01 5.799690778702412119e-01
8.600000000000000000e+01 5.768179525619824277e-01
8.700000000000000000e+01 5.736922660629847348e-01
8.800000000000000000e+01 5.705902838044302205e-01
8.900000000000000000e+01 5.675109101264839140e-01
9.000000000000000000e+01 5.644504445456000052e-01
9.100000000000000000e+01 5.614090395344079054e-01
9.200000000000000000e+01 5.583911882253714820e-01
9.300000000000000000e+01 5.553968254896795020e-01
9.400000000000000000e+01 5.524242142834638880e-01
9.500000000000000000e+01 5.494725443582604285e-01
9.600000000000000000e+01 5.465410192837737435e-01
9.700000000000000000e+01 5.436283053909942709e-01
9.800000000000000000e+01 5.407362234440197257e-01
9.900000000000000000e+01 5.378667133549337454e-01
1.000000000000000000e+02 5.350193380052228331e-01
1.010000000000000000e+02 5.321925282061414908e-01
1.020000000000000000e+02 5.293847256174504246e-01
1.030000000000000000e+02 5.265932963638997322e-01
1.040000000000000000e+02 5.238212807106240598e-01
1.050000000000000000e+02 5.210704965905674779e-01
1.060000000000000000e+02 5.183392760638150243e-01
1.070000000000000000e+02 5.156267501857607627e-01
1.080000000000000000e+02 5.129307797566132754e-01
1.090000000000000000e+02 5.102510147105163707e-01
1.100000000000000000e+02 5.075875664730925552e-01
1.110000000000000000e+02 5.049426155615861500e-01
1.120000000000000000e+02 5.023146283907098386e-01
1.130000000000000000e+02 4.997036974679745502e-01
1.140000000000000000e+02 4.971112677280958292e-01
1.150000000000000000e+02 4.945359041884340168e-01
1.160000000000000000e+02 4.919783330040409242e-01
1.170000000000000000e+02 4.894402282663535830e-01
1.180000000000000000e+02 4.869212292609029769e-01
1.190000000000000000e+02 4.844218363867037191e-01
1.200000000000000000e+02 4.819391927812471943e-01
1.210000000000000000e+02 4.794709488756448978e-01
1.220000000000000000e+02 4.770158867350720033e-01
1.230000000000000000e+02 4.745729076829266480e-01
1.240000000000000000e+02 4.721416637170220421e-01
1.250000000000000000e+02 4.697228567360433038e-01
1.260000000000000000e+02 4.673200587525556671e-01
1.270000000000000000e+02 4.649322871573366989e-01
1.280000000000000000e+02 4.625583001480553791e-01
1.290000000000000000e+02 4.601970733358635712e-01
1.300000000000000000e+02 4.578458394500541373e-01
1.310000000000000000e+02 4.555052768371782856e-01
1.320000000000000000e+02 4.531773776140381460e-01
1.330000000000000000e+02 4.508646497069755954e-01
1.340000000000000000e+02 4.485674585845229045e-01
1.350000000000000000e+02 4.462859719311292328e-01
1.360000000000000000e+02 4.440167584027924774e-01
1.370000000000000000e+02 4.417564005185140030e-01
1.380000000000000000e+02 4.395089244731100742e-01
1.390000000000000000e+02 4.372750145356156248e-01
1.400000000000000000e+02 4.350498347036834135e-01
1.410000000000000000e+02 4.328349138478086999e-01
1.420000000000000000e+02 4.306309517243910312e-01
1.430000000000000000e+02 4.284393670416503097e-01
1.440000000000000000e+02 4.262622463977096543e-01
1.450000000000000000e+02 4.241006711519644812e-01
1.460000000000000000e+02 4.219550551141194039e-01
1.470000000000000000e+02 4.198226971829008281e-01
1.480000000000000000e+02 4.177037239220418030e-01
1.490000000000000000e+02 4.155984263416657165e-01
1.500000000000000000e+02 4.135046571540709759e-01
1.510000000000000000e+02 4.114215469726102414e-01
1.520000000000000000e+02 4.093526584495585929e-01
1.530000000000000000e+02 4.073002951668731053e-01
1.540000000000000000e+02 4.052632910430404301e-01
1.550000000000000000e+02 4.032422090509450996e-01
1.560000000000000000e+02 4.012368281882585652e-01
1.570000000000000000e+02 3.992437078284775120e-01
1.580000000000000000e+02 3.972609928310713578e-01
1.590000000000000000e+02 3.952869079419902287e-01
1.600000000000000000e+02 3.933198062236235026e-01
1.610000000000000000e+02 3.913611083695405224e-01
1.620000000000000000e+02 3.894140423330088030e-01
1.630000000000000000e+02 3.874798103576307384e-01
1.640000000000000000e+02 3.855554035119102552e-01
1.650000000000000000e+02 3.836397533462737042e-01
1.660000000000000000e+02 3.817341808225622746e-01
1.670000000000000000e+02 3.798420154074651500e-01
1.680000000000000000e+02 3.779624869518817820e-01
1.690000000000000000e+02 3.760940616842129991e-01
1.700000000000000000e+02 3.742398209804509990e-01
1.710000000000000000e+02 3.723981177381482932e-01
1.720000000000000000e+02 3.705683883259530687e-01
1.730000000000000000e+02 3.687515089052601502e-01
1.740000000000000000e+02 3.669448437092278636e-01
1.750000000000000000e+02 3.651464392343657384e-01
1.760000000000000000e+02 3.633574097899862076e-01
1.770000000000000000e+02 3.615760478168734138e-01
1.780000000000000000e+02 3.597994704586103265e-01
1.790000000000000000e+02 3.580310058119330896e-01
1.800000000000000000e+02 3.562766174426651999e-01
1.810000000000000000e+02 3.545354250476411284e-01
1.820000000000000000e+02 3.528057781676913751e-01
1.830000000000000000e+02 3.510885463323876188e-01
1.840000000000000000e+02 3.493791387418536676e-01
1.850000000000000000e+02 3.476776135242370946e-01
1.860000000000000000e+02 3.459874617140581976e-01
1.870000000000000000e+02 3.443097836489045216e-01
1.880000000000000000e+02 3.426434510482324058e-01
1.890000000000000000e+02 3.409911332267438477e-01
1.900000000000000000e+02 3.393522017432197280e-01
1.910000000000000000e+02 3.377230328589462260e-01
1.920000000000000000e+02 3.361001946346904856e-01
1.930000000000000000e+02 3.344826511155391535e-01
1.940000000000000000e+02 3.328706358878472660e-01
1.950000000000000000e+02 3.312646557564569716e-01
1.960000000000000000e+02 3.296668168980455005e-01
1.970000000000000000e+02 3.280786055222022490e-01
1.980000000000000000e+02 3.264997273941521727e-01
1.990000000000000000e+02 3.249288390204225774e-01
2.000000000000000000e+02 3.233657008536792166e-01
2.010000000000000000e+02 3.218089791000801059e-01
2.020000000000000000e+02 3.202585915061218480e-01
2.030000000000000000e+02 3.187164502698886515e-01
2.040000000000000000e+02 3.171838651579733659e-01
2.050000000000000000e+02 3.156598890637745680e-01
2.060000000000000000e+02 3.141430087407346416e-01
2.070000000000000000e+02 3.126341252130237502e-01
2.080000000000000000e+02 3.111329654452040794e-01
2.090000000000000000e+02 3.096407491026895165e-01
2.100000000000000000e+02 3.081567883109531669e-01
2.110000000000000000e+02 3.066790541976640028e-01
2.120000000000000000e+02 3.052080843699516155e-01
2.130000000000000000e+02 3.037445048404739945e-01
2.140000000000000000e+02 3.022889769342552158e-01
2.150000000000000000e+02 3.008407327273063814e-01
2.160000000000000000e+02 2.993988132830536775e-01
2.170000000000000000e+02 2.979638343512359122e-01
2.180000000000000000e+02 2.965369429317463168e-01
2.190000000000000000e+02 2.951172471113517326e-01
2.200000000000000000e+02 2.937073126044472682e-01
2.210000000000000000e+02 2.923091365860390756e-01
2.220000000000000000e+02 2.909225673191883632e-01
2.230000000000000000e+02 2.895463004544525099e-01
2.240000000000000000e+02 2.881751834462317197e-01
2.250000000000000000e+02 2.868081476092728122e-01
2.260000000000000000e+02 2.854470493113396290e-01
2.270000000000000000e+02 2.840929602750355554e-01
2.280000000000000000e+02 2.827478154424338808e-01
2.290000000000000000e+02 2.814125913897752573e-01
2.300000000000000000e+02 2.800849642942903062e-01
2.310000000000000000e+02 2.787646314567477357e-01
2.320000000000000000e+02 2.774535134724714358e-01
2.330000000000000000e+02 2.761497845190757361e-01
2.340000000000000000e+02 2.748512663783764798e-01
2.350000000000000000e+02 2.735580922927280390e-01
2.360000000000000000e+02 2.722700077251477002e-01
2.370000000000000000e+02 2.709859252997438572e-01
2.380000000000000000e+02 2.697082433654134359e-01
2.390000000000000000e+02 2.684386603127673077e-01
2.400000000000000000e+02 2.671765634494108199e-01
2.410000000000000000e+02 2.659212354758757058e-01
2.420000000000000000e+02 2.646708771433146090e-01
2.430000000000000000e+02 2.634269620085236130e-01
2.440000000000000000e+02 2.621897958370796866e-01
2.450000000000000000e+02 2.609575035474016591e-01
2.460000000000000000e+02 2.597303160229728070e-01
2.470000000000000000e+02 2.585097654630970632e-01
2.480000000000000000e+02 2.572948962838971232e-01
2.490000000000000000e+02 2.560839802449315084e-01
2.500000000000000000e+02 2.548764308859874927e-01
2.510000000000000000e+02 2.536752365117984631e-01
2.520000000000000000e+02 2.524810821665502414e-01
2.530000000000000000e+02 2.512940491547568378e-01
2.540000000000000000e+02 2.501165953388146956e-01
2.550000000000000000e+02 2.489484605897125113e-01
2.560000000000000000e+02 2.477870429350584602e-01
2.570000000000000000e+02 2.466298320245972620e-01
2.580000000000000000e+02 2.454750266312112905e-01
2.590000000000000000e+02 2.443234029046589539e-01
2.600000000000000000e+02 2.431764758463587917e-01
2.610000000000000000e+02 2.420330019934797128e-01
2.620000000000000000e+02 2.408917073422264521e-01
2.630000000000000000e+02 2.397544741040935901e-01
2.640000000000000000e+02 2.386221209517980502e-01
2.650000000000000000e+02 2.374943891778817096e-01
2.660000000000000000e+02 2.363731246115662876e-01
2.670000000000000000e+02 2.352582710106817243e-01
2.680000000000000000e+02 2.341501542045330009e-01
2.690000000000000000e+02 2.330493999832113639e-01
2.700000000000000000e+02 2.319562912321344039e-01
2.710000000000000000e+02 2.308699634653118282e-01
2.720000000000000000e+02 2.297914795130144572e-01
2.730000000000000000e+02 2.287207329531001365e-01
2.740000000000000000e+02 2.276546797282038570e-01
2.750000000000000000e+02 2.265923809869107297e-01
2.760000000000000000e+02 2.255342861259919673e-01
2.770000000000000000e+02 2.244787068764458882e-01
2.780000000000000000e+02 2.234279871245350990e-01
2.790000000000000000e+02 2.223845876141659628e-01
2.800000000000000000e+02 2.213483409735731988e-01
2.810000000000000000e+02 2.203175793974117003e-01
2.820000000000000000e+02 2.192943778510489383e-01
2.830000000000000000e+02 2.182798073493613100e-01
2.840000000000000000e+02 2.172717780348303318e-01
2.850000000000000000e+02 2.162703600778802804e-01
2.860000000000000000e+02 2.152756693468889926e-01
2.870000000000000000e+02 2.142878039947808122e-01
2.880000000000000000e+02 2.133061463430226679e-01
2.890000000000000000e+02 2.123301745428543830e-01
2.900000000000000000e+02 2.113633430034371208e-01
2.910000000000000000e+02 2.104068147440641690e-01
2.920000000000000000e+02 2.094595878942983325e-01
2.930000000000000000e+02 2.085200443484660493e-01
2.940000000000000000e+02 2.075860168042879261e-01
2.950000000000000000e+02 2.066550433326698188e-01
2.960000000000000000e+02 2.057247920694477428e-01
2.970000000000000000e+02 2.047971054810085179e-01
2.980000000000000000e+02 2.038728767773484163e-01
2.990000000000000000e+02 2.029516230241167896e-01
3.000000000000000000e+02 2.020350240220163129e-01
3.010000000000000000e+02 2.011240150644140467e-01
3.020000000000000000e+02 2.002206997630449625e-01
3.030000000000000000e+02 1.993236501806647520e-01
3.040000000000000000e+02 1.984319090692602816e-01
3.050000000000000000e+02 1.975446909263820772e-01
3.060000000000000000e+02 1.966602120717714786e-01
3.070000000000000000e+02 1.957776155826246589e-01
3.080000000000000000e+02 1.948976530769593873e-01
3.090000000000000000e+02 1.940215465701586317e-01
3.100000000000000000e+02 1.931488089581319401e-01
3.110000000000000000e+02 1.922800488153497966e-01
3.120000000000000000e+02 1.914149305897101527e-01
3.130000000000000000e+02 1.905531916111848079e-01
3.140000000000000000e+02 1.896951413655013075e-01
3.150000000000000000e+02 1.888401501206861122e-01
3.160000000000000000e+02 1.879901469600518404e-01
3.170000000000000000e+02 1.871470791166841008e-01
3.180000000000000000e+02 1.863083183767168527e-01
3.190000000000000000e+02 1.854700217414131935e-01
3.200000000000000000e+02 1.846307717820864780e-01
3.210000000000000000e+02 1.837911655222374263e-01
3.220000000000000000e+02 1.829528894973938280e-01
3.230000000000000000e+02 1.821142003609323157e-01
3.240000000000000000e+02 1.812771746130066031e-01
3.250000000000000000e+02 1.804453700111047776e-01
3.260000000000000000e+02 1.796166968028130584e-01
3.270000000000000000e+02 1.787946949874726910e-01
3.280000000000000000e+02 1.779805744576844762e-01
3.290000000000000000e+02 1.771723241157047990e-01
3.300000000000000000e+02 1.763727251625146208e-01
3.310000000000000000e+02 1.755804447632691445e-01
3.320000000000000000e+02 1.747930819003635783e-01
3.330000000000000000e+02 1.740089867716739236e-01
3.340000000000000000e+02 1.732292148493783102e-01
3.350000000000000000e+02 1.724536227686756795e-01
3.360000000000000000e+02 1.716820829250969294e-01
3.370000000000000000e+02 1.709147235786762642e-01
3.380000000000000000e+02 1.701517050767445416e-01
3.390000000000000000e+02 1.693931636592256040e-01
3.400000000000000000e+02 1.686403078392458565e-01
3.410000000000000000e+02 1.678926347234760419e-01
3.420000000000000000e+02 1.671481225180712349e-01
3.430000000000000000e+02 1.664057856275342473e-01
3.440000000000000000e+02 1.656652826332262463e-01
3.450000000000000000e+02 1.649287622986579382e-01
3.460000000000000000e+02 1.641986164556058225e-01
3.470000000000000000e+02 1.634748552678087774e-01
3.480000000000000000e+02 1.627562552497506809e-01
3.490000000000000000e+02 1.620416692223766997e-01
3.500000000000000000e+02 1.613288163413686971e-01
3.510000000000000000e+02 1.606135241952011961e-01
3.520000000000000000e+02 1.598937665335075364e-01
3.530000000000000000e+02 1.591707978871096663e-01
3.540000000000000000e+02 1.584479868593851315e-01
3.550000000000000000e+02 1.577276536920521888e-01
3.560000000000000000e+02 1.570125690568069388e-01
3.570000000000000000e+02 1.563039498988565978e-01
3.580000000000000000e+02 1.556035860273039251e-01
3.590000000000000000e+02 1.549103128306082433e-01
3.600000000000000000e+02 1.542197031875393587e-01
3.610000000000000000e+02 1.535309855870092832e-01
3.620000000000000000e+02 1.528443440713930790e-01
3.630000000000000000e+02 1.521603971997814442e-01
3.640000000000000000e+02 1.514783721654780202e-01
3.650000000000000000e+02 1.507981026137581171e-01
3.660000000000000000e+02 1.501216506215569957e-01
3.670000000000000000e+02 1.494471978933922529e-01
3.680000000000000000e+02 1.487723134034594774e-01
3.690000000000000000e+02 1.480981033456746643e-01
3.700000000000000000e+02 1.474271725888888496e-01
3.710000000000000000e+02 1.467607051950907404e-01
3.720000000000000000e+02 1.460991453463581224e-01
3.730000000000000000e+02 1.454441267747775268e-01
3.740000000000000000e+02 1.447957737610519602e-01
3.750000000000000000e+02 1.441520298400345845e-01
3.760000000000000000e+02 1.435143089208960887e-01
3.770000000000000000e+02 1.428858168424632369e-01
3.780000000000000000e+02 1.422644479872186840e-01
3.790000000000000000e+02 1.416476711239309516e-01
3.800000000000000000e+02 1.410347829763057559e-01
3.810000000000000000e+02 1.404251170446383923e-01
3.820000000000000000e+02 1.398174403708831171e-01
3.830000000000000000e+02 1.392112887925011644e-01
3.840000000000000000e+02 1.386061103167332553e-01
3.850000000000000000e+02 1.380025004999711480e-01
3.860000000000000000e+02 1.374013041335526430e-01
3.870000000000000000e+02 1.368028652565087822e-01
3.880000000000000000e+02 1.362071062221110740e-01
3.890000000000000000e+02 1.356143248634158194e-01
3.900000000000000000e+02 1.350239606979597162e-01
3.910000000000000000e+02 1.344353021190899944e-01
3.920000000000000000e+02 1.338486211419958605e-01
3.930000000000000000e+02 1.332637496744152050e-01
3.940000000000000000e+02 1.326802735343144968e-01
3.950000000000000000e+02 1.320983788342399434e-01
