# XXZ chain with NNN perturbation
# L = 28, S_z^tot = 4, J = 1, Delta = 0.5, g = 0.30
# Time dependence of normalized energy current autocorrelation function
# tJ, C_kappa(t)


0.000000000000000000e+00 1.000000000000000000e+00
1.000000000000000000e+00 9.818525564225035751e-01
2.000000000000000000e+00 9.456900939034919018e-01
3.000000000000000000e+00 9.067969914118640951e-01
4.000000000000000000e+00 8.690598224731737043e-01
5.000000000000000000e+00 8.357246128660020812e-01
6.000000000000000000e+00 8.067287331658976601e-01
7.000000000000000000e+00 7.811531412360007698e-01
8.000000000000000000e+00 7.581963866448809819e-01
9.000000000000000000e+00 7.371942899391219495e-01
1.000000000000000000e+01 7.176855499716423559e-01
1.100000000000000000e+01 6.993601030416612963e-01
1.200000000000000000e+01 6.820053805431410821e-01
1.300000000000000000e+01 6.654823094151178786e-01
1.400000000000000000e+01 6.496777256568110337e-01
1.500000000000000000e+01 6.345163593286624604e-01
1.600000000000000000e+01 6.199482929252632113e-01
1.700000000000000000e+01 6.059174727355254308e-01
1.800000000000000000e+01 5.923842832974715034e-01
1.900000000000000000e+01 5.793220393279604474e-01
2.000000000000000000e+01 5.667079085517109371e-01
2.100000000000000000e+01 5.545305332615145799e-01
2.200000000000000000e+01 5.427760501248176661e-01
2.300000000000000000e+01 5.314171980977512311e-01
2.400000000000000000e+01 5.204317807810288077e-01
2.500000000000000000e+01 5.097913446900549372e-01
2.600000000000000000e+01 4.994697601088780026e-01
2.700000000000000000e+01 4.894284473244192024e-01
2.800000000000000000e+01 4.796183238451076081e-01
2.900000000000000000e+01 4.700105231816642526e-01
3.000000000000000000e+01 4.605923846824225287e-01
3.100000000000000000e+01 4.513575853952217498e-01
3.200000000000000000e+01 4.422993834709546546e-01
3.300000000000000000e+01 4.334081432322808292e-01
3.400000000000000000e+01 4.246929465300234852e-01
3.500000000000000000e+01 4.161612777896769311e-01
3.600000000000000000e+01 4.078160883113043367e-01
3.700000000000000000e+01 3.996632608894324368e-01
3.800000000000000000e+01 3.917016975319810301e-01
3.900000000000000000e+01 3.839342990111507259e-01
4.000000000000000000e+01 3.763478037810347732e-01
4.100000000000000000e+01 3.689303088757781568e-01
4.200000000000000000e+01 3.616832388658720032e-01
4.300000000000000000e+01 3.545991758994995191e-01
4.400000000000000000e+01 3.476714799937659084e-01
4.500000000000000000e+01 3.408971135348464188e-01
4.600000000000000000e+01 3.342742383594212163e-01
4.700000000000000000e+01 3.278001043246579482e-01
4.800000000000000000e+01 3.214716241515105932e-01
4.900000000000000000e+01 3.152926405270446986e-01
5.000000000000000000e+01 3.092599100690231473e-01
5.100000000000000000e+01 3.033607357334704990e-01
5.200000000000000000e+01 2.975904957164782205e-01
5.300000000000000000e+01 2.919387644174830654e-01
5.400000000000000000e+01 2.864065416807731190e-01
5.500000000000000000e+01 2.810066999185938941e-01
5.600000000000000000e+01 2.757388155796300921e-01
5.700000000000000000e+01 2.705984232726374450e-01
5.800000000000000000e+01 2.655806117725004190e-01
5.900000000000000000e+01 2.606788680031223993e-01
6.000000000000000000e+01 2.558886896091721042e-01
6.100000000000000000e+01 2.511958488770346110e-01
6.200000000000000000e+01 2.465944647390451716e-01
6.300000000000000000e+01 2.420853154706008870e-01
6.400000000000000000e+01 2.376602905898566043e-01
6.500000000000000000e+01 2.333285775826477448e-01
6.600000000000000000e+01 2.290871516956627107e-01
6.700000000000000000e+01 2.249232992862277569e-01
6.800000000000000000e+01 2.208464421600581651e-01
6.900000000000000000e+01 2.168642817866231198e-01
7.000000000000000000e+01 2.129679499397235387e-01
7.100000000000000000e+01 2.091543451454075941e-01
7.200000000000000000e+01 2.054155709138396346e-01
7.300000000000000000e+01 2.017433952529619212e-01
7.400000000000000000e+01 1.981410952292579353e-01
7.500000000000000000e+01 1.946138445915653881e-01
7.600000000000000000e+01 1.911653877561620973e-01
7.700000000000000000e+01 1.878025518186195730e-01
7.800000000000000000e+01 1.845229516696373917e-01
7.900000000000000000e+01 1.813166037689942500e-01
8.000000000000000000e+01 1.781809558084245793e-01
8.100000000000000000e+01 1.751183117106063503e-01
8.200000000000000000e+01 1.721148054681490291e-01
8.300000000000000000e+01 1.691539118086278493e-01
8.400000000000000000e+01 1.662389693848495553e-01
8.500000000000000000e+01 1.633606426961839442e-01
8.600000000000000000e+01 1.605215806648688237e-01
8.700000000000000000e+01 1.577265123430457439e-01
8.800000000000000000e+01 1.549805801452519560e-01
8.900000000000000000e+01 1.522939440383406506e-01
9.000000000000000000e+01 1.496623966582765475e-01
9.100000000000000000e+01 1.470754935133487540e-01
9.200000000000000000e+01 1.445348762339402904e-01
9.300000000000000000e+01 1.420540062168159090e-01
9.400000000000000000e+01 1.396441525484440616e-01
9.500000000000000000e+01 1.372907160117386727e-01
9.600000000000000000e+01 1.349777790674677180e-01
9.700000000000000000e+01 1.327027462670847535e-01
9.800000000000000000e+01 1.304593573021925468e-01
9.900000000000000000e+01 1.282493899871309240e-01
1.000000000000000000e+02 1.260850288688780407e-01
1.010000000000000000e+02 1.239722414518774490e-01
1.020000000000000000e+02 1.219056631623896131e-01
1.030000000000000000e+02 1.198736108920817056e-01
1.040000000000000000e+02 1.178670648256253534e-01
1.050000000000000000e+02 1.158817132526612226e-01
1.060000000000000000e+02 1.139362191017806031e-01
1.070000000000000000e+02 1.120353610437804931e-01
1.080000000000000000e+02 1.101660709598396709e-01
1.090000000000000000e+02 1.083191159540394521e-01
1.100000000000000000e+02 1.064939526430798838e-01
1.110000000000000000e+02 1.046985017621351183e-01
1.120000000000000000e+02 1.029412800689243901e-01
1.130000000000000000e+02 1.012277681360621989e-01
1.140000000000000000e+02 9.955168565855743168e-02
1.150000000000000000e+02 9.790574296992625436e-02
1.160000000000000000e+02 9.629126183307668008e-02
1.170000000000000000e+02 9.471048656100512775e-02
1.180000000000000000e+02 9.315031737170555159e-02
1.190000000000000000e+02 9.160608492356768495e-02
1.200000000000000000e+02 9.007815845148298139e-02
1.210000000000000000e+02 8.858620313201495677e-02
1.220000000000000000e+02 8.712908278824771369e-02
1.230000000000000000e+02 8.569595060182590152e-02
1.240000000000000000e+02 8.428638417726162790e-02
1.250000000000000000e+02 8.290071386010766652e-02
1.260000000000000000e+02 8.153319131906154593e-02
1.270000000000000000e+02 8.018562393473638306e-02
1.280000000000000000e+02 7.885940437810579073e-02
1.290000000000000000e+02 7.755918060931303593e-02
1.300000000000000000e+02 7.628894568648977859e-02
1.310000000000000000e+02 7.503688203907138421e-02
1.320000000000000000e+02 7.379315226581835419e-02
1.330000000000000000e+02 7.255741441575327966e-02
1.340000000000000000e+02 7.133807056405232216e-02
1.350000000000000000e+02 7.013951196645390462e-02
1.360000000000000000e+02 6.897700475030185685e-02
1.370000000000000000e+02 6.784512233790432334e-02
1.380000000000000000e+02 6.674066071927703403e-02
1.390000000000000000e+02 6.566315463443220257e-02
1.400000000000000000e+02 6.459913160941997690e-02
1.410000000000000000e+02 6.354780896890521724e-02
1.420000000000000000e+02 6.250968230693887406e-02
1.430000000000000000e+02 6.148736010665521029e-02
1.440000000000000000e+02 6.049345678812319965e-02
1.450000000000000000e+02 5.953571222670056562e-02
1.460000000000000000e+02 5.861806300527688113e-02
1.470000000000000000e+02 5.772682999368320550e-02
1.480000000000000000e+02 5.685934097990771874e-02
1.490000000000000000e+02 5.601256593006679468e-02
1.500000000000000000e+02 5.517592050953599309e-02
1.510000000000000000e+02 5.435223655543307969e-02
1.520000000000000000e+02 5.354301030800753813e-02
1.530000000000000000e+02 5.273971817066341883e-02
1.540000000000000000e+02 5.193437800778888391e-02
1.550000000000000000e+02 5.113605740442776076e-02
1.560000000000000000e+02 5.035154191123256823e-02
1.570000000000000000e+02 4.957682851312744665e-02
1.580000000000000000e+02 4.881225137633287553e-02
1.590000000000000000e+02 4.806360708611445709e-02
1.600000000000000000e+02 4.733304827750673544e-02
1.610000000000000000e+02 4.662503800651929264e-02
1.620000000000000000e+02 4.593466549492977724e-02
1.630000000000000000e+02 4.525297027010926482e-02
1.640000000000000000e+02 4.457707321267260353e-02
1.650000000000000000e+02 4.390471128465599226e-02
1.660000000000000000e+02 4.323645541388729252e-02
1.670000000000000000e+02 4.256582833437660973e-02
1.680000000000000000e+02 4.189485712245689941e-02
1.690000000000000000e+02 4.123543983668196550e-02
1.700000000000000000e+02 4.058849959180778344e-02
1.710000000000000000e+02 3.996476715796395268e-02
1.720000000000000000e+02 3.936284189852835846e-02
1.730000000000000000e+02 3.876901156146430466e-02
1.740000000000000000e+02 3.817781362607753498e-02
1.750000000000000000e+02 3.758276450562852283e-02
1.760000000000000000e+02 3.698777817157718195e-02
1.770000000000000000e+02 3.640814158552801300e-02
1.780000000000000000e+02 3.584005867120048511e-02
1.790000000000000000e+02 3.528432630708735335e-02
1.800000000000000000e+02 3.474515411141252536e-02
1.810000000000000000e+02 3.422484445407536491e-02
1.820000000000000000e+02 3.372081831193379786e-02
1.830000000000000000e+02 3.321762539334986719e-02
1.840000000000000000e+02 3.270206220057813445e-02
1.850000000000000000e+02 3.217610921135241608e-02
1.860000000000000000e+02 3.164835965330737438e-02
1.870000000000000000e+02 3.112671486086173236e-02
1.880000000000000000e+02 3.060519725451117320e-02
1.890000000000000000e+02 3.007970326151212723e-02
1.900000000000000000e+02 2.955491047075434544e-02
1.910000000000000000e+02 2.903397744945406672e-02
1.920000000000000000e+02 2.852929004013418299e-02
1.930000000000000000e+02 2.804753014637982253e-02
1.940000000000000000e+02 2.758722455606641213e-02
1.950000000000000000e+02 2.714400488497351743e-02
1.960000000000000000e+02 2.670864574243519279e-02
1.970000000000000000e+02 2.627667594599296039e-02
1.980000000000000000e+02 2.585437241494645960e-02
1.990000000000000000e+02 2.544303977331362904e-02
2.000000000000000000e+02 2.503621672811780566e-02
2.010000000000000000e+02 2.463784292425450634e-02
2.020000000000000000e+02 2.424967474763557035e-02
2.030000000000000000e+02 2.387219917819850823e-02
2.040000000000000000e+02 2.349169965893660103e-02
2.050000000000000000e+02 2.310262628880746516e-02
2.060000000000000000e+02 2.270664920393921857e-02
2.070000000000000000e+02 2.231795323309575599e-02
2.080000000000000000e+02 2.194646851085766195e-02
2.090000000000000000e+02 2.158733582905597928e-02
2.100000000000000000e+02 2.123801262792057026e-02
2.110000000000000000e+02 2.089348311489438309e-02
2.120000000000000000e+02 2.055119495054301068e-02
2.130000000000000000e+02 2.022017394386789110e-02
2.140000000000000000e+02 1.989937409379171490e-02
2.150000000000000000e+02 1.959127722652191997e-02
2.160000000000000000e+02 1.929014736049761147e-02
2.170000000000000000e+02 1.899166659822715611e-02
2.180000000000000000e+02 1.869163305227382679e-02
2.190000000000000000e+02 1.838691424834143842e-02
2.200000000000000000e+02 1.808716292718390295e-02
2.210000000000000000e+02 1.780046491658923355e-02
2.220000000000000000e+02 1.753275137798995104e-02
2.230000000000000000e+02 1.728000532573911383e-02
2.240000000000000000e+02 1.703096958547208745e-02
2.250000000000000000e+02 1.678087563076584299e-02
2.260000000000000000e+02 1.652578932632463998e-02
2.270000000000000000e+02 1.626507130029905546e-02
2.280000000000000000e+02 1.600623392898901584e-02
2.290000000000000000e+02 1.575059166403439126e-02
2.300000000000000000e+02 1.549982156193841984e-02
2.310000000000000000e+02 1.526147708269925095e-02
2.320000000000000000e+02 1.503128999380410821e-02
2.330000000000000000e+02 1.481292578874061731e-02
2.340000000000000000e+02 1.459634395525542805e-02
2.350000000000000000e+02 1.437759120741607770e-02
2.360000000000000000e+02 1.417369042798100921e-02
2.370000000000000000e+02 1.398194276950062882e-02
2.380000000000000000e+02 1.379218302686523526e-02
2.390000000000000000e+02 1.360869751535522670e-02
2.400000000000000000e+02 1.342653657585574610e-02
2.410000000000000000e+02 1.324005086896813330e-02
2.420000000000000000e+02 1.304938142504807191e-02
2.430000000000000000e+02 1.285832132674964018e-02
2.440000000000000000e+02 1.267188675245405939e-02
2.450000000000000000e+02 1.248908113812130689e-02
2.460000000000000000e+02 1.231507296847179043e-02
2.470000000000000000e+02 1.214676501347607823e-02
2.480000000000000000e+02 1.198012291640313670e-02
2.490000000000000000e+02 1.182039304208855161e-02
2.500000000000000000e+02 1.166590764630324323e-02
2.510000000000000000e+02 1.150561407476316002e-02
2.520000000000000000e+02 1.133428941706872070e-02
2.530000000000000000e+02 1.114811234880516873e-02
2.540000000000000000e+02 1.095599823984014579e-02
2.550000000000000000e+02 1.076228498572190384e-02
2.560000000000000000e+02 1.057018988001072642e-02
2.570000000000000000e+02 1.038106733864212206e-02
2.580000000000000000e+02 1.019953389072279608e-02
2.590000000000000000e+02 1.002416751927377725e-02
2.600000000000000000e+02 9.855167217311657998e-03
2.610000000000000000e+02 9.697429993162498887e-03
2.620000000000000000e+02 9.554878918399399221e-03
2.630000000000000000e+02 9.419618041369242495e-03
2.640000000000000000e+02 9.293574364343514319e-03
2.650000000000000000e+02 9.177555701307106573e-03
2.660000000000000000e+02 9.059342374793669800e-03
2.670000000000000000e+02 8.933385266292217727e-03
2.680000000000000000e+02 8.804610045759667797e-03
2.690000000000000000e+02 8.670155469008079471e-03
2.700000000000000000e+02 8.529324784427262315e-03
2.710000000000000000e+02 8.384792272982761682e-03
2.720000000000000000e+02 8.229880335130078384e-03
2.730000000000000000e+02 8.067213740175592854e-03
2.740000000000000000e+02 7.907606823525122411e-03
2.750000000000000000e+02 7.754283263653409704e-03
2.760000000000000000e+02 7.610742994314077456e-03
2.770000000000000000e+02 7.474659631268540730e-03
2.780000000000000000e+02 7.335937697400820960e-03
2.790000000000000000e+02 7.193712401859903537e-03
2.800000000000000000e+02 7.059649836214345470e-03
2.810000000000000000e+02 6.941877606813741559e-03
2.820000000000000000e+02 6.832807847559138094e-03
2.830000000000000000e+02 6.725268458314810974e-03
2.840000000000000000e+02 6.634881143272502828e-03
2.850000000000000000e+02 6.571418340058221910e-03
2.860000000000000000e+02 6.525265085732039234e-03
2.870000000000000000e+02 6.475050473738773460e-03
2.880000000000000000e+02 6.407909303566764435e-03
2.890000000000000000e+02 6.319611228055507790e-03
2.900000000000000000e+02 6.216259219186809348e-03
2.910000000000000000e+02 6.111330136851829235e-03
2.920000000000000000e+02 6.014689592633674052e-03
2.930000000000000000e+02 5.921933311351218997e-03
2.940000000000000000e+02 5.836292080196444840e-03
2.950000000000000000e+02 5.764596410747189169e-03
2.960000000000000000e+02 5.697000183819301601e-03
2.970000000000000000e+02 5.624802930184602881e-03
2.980000000000000000e+02 5.551005072408850965e-03
2.990000000000000000e+02 5.477278603312536569e-03
3.000000000000000000e+02 5.406719672085339573e-03
3.010000000000000000e+02 5.349424167953369287e-03
3.020000000000000000e+02 5.300280696404080331e-03
3.030000000000000000e+02 5.243427772124226692e-03
3.040000000000000000e+02 5.183240714759483787e-03
3.050000000000000000e+02 5.131310947474758410e-03
3.060000000000000000e+02 5.084057868879056710e-03
3.070000000000000000e+02 5.030246524988899078e-03
3.080000000000000000e+02 4.962245446922192507e-03
3.090000000000000000e+02 4.884887028119955232e-03
3.100000000000000000e+02 4.815906191285971444e-03
3.110000000000000000e+02 4.766107861268133530e-03
3.120000000000000000e+02 4.726173469231207888e-03
3.130000000000000000e+02 4.687189025986021086e-03
3.140000000000000000e+02 4.651715819089483582e-03
3.150000000000000000e+02 4.622625653895441264e-03
3.160000000000000000e+02 4.593630432290058373e-03
3.170000000000000000e+02 4.561020470508184328e-03
3.180000000000000000e+02 4.529565886494600971e-03
3.190000000000000000e+02 4.493635647036404654e-03
3.200000000000000000e+02 4.446121035817419270e-03
3.210000000000000000e+02 4.394883331327036589e-03
3.220000000000000000e+02 4.347374744133268229e-03
3.230000000000000000e+02 4.297463213604604988e-03
3.240000000000000000e+02 4.253789997329769125e-03
3.250000000000000000e+02 4.224948254136602459e-03
3.260000000000000000e+02 4.204965324037388680e-03
3.270000000000000000e+02 4.186874848251161303e-03
3.280000000000000000e+02 4.170450211957120283e-03
3.290000000000000000e+02 4.158747895723456309e-03
3.300000000000000000e+02 4.148454372209166470e-03
3.310000000000000000e+02 4.132405345778856522e-03
3.320000000000000000e+02 4.108061028703457671e-03
3.330000000000000000e+02 4.081794181381914396e-03
3.340000000000000000e+02 4.059074662040603083e-03
3.350000000000000000e+02 4.030686010924254027e-03
3.360000000000000000e+02 3.992218879667038499e-03
3.370000000000000000e+02 3.947094965303990337e-03
3.380000000000000000e+02 3.900845353937526429e-03
3.390000000000000000e+02 3.853199162106019440e-03
3.400000000000000000e+02 3.803918408485699575e-03
3.410000000000000000e+02 3.757268935001061624e-03
3.420000000000000000e+02 3.714327534478221136e-03
3.430000000000000000e+02 3.675922801489408132e-03
3.440000000000000000e+02 3.637044029102239149e-03
3.450000000000000000e+02 3.597577966909807669e-03
3.460000000000000000e+02 3.569673722183609125e-03
3.470000000000000000e+02 3.557480908154908063e-03
3.480000000000000000e+02 3.551959678978702187e-03
3.490000000000000000e+02 3.552767174055700052e-03
3.500000000000000000e+02 3.554256353687823815e-03
3.510000000000000000e+02 3.547494219897115268e-03
3.520000000000000000e+02 3.545914290637329144e-03
3.530000000000000000e+02 3.563583025205353805e-03
3.540000000000000000e+02 3.605825751085421291e-03
3.550000000000000000e+02 3.667151106296815972e-03
3.560000000000000000e+02 3.733842726666339751e-03
3.570000000000000000e+02 3.788161389841729603e-03
3.580000000000000000e+02 3.825274774156026646e-03
3.590000000000000000e+02 3.852262127135120100e-03
3.600000000000000000e+02 3.887994694163379207e-03
3.610000000000000000e+02 3.928797719714486290e-03
3.620000000000000000e+02 3.969416903803522391e-03
3.630000000000000000e+02 4.007986965961858952e-03
3.640000000000000000e+02 4.036396621433783159e-03
3.650000000000000000e+02 4.057510169467212248e-03
3.660000000000000000e+02 4.062502861203308273e-03
3.670000000000000000e+02 4.056265924605245536e-03
3.680000000000000000e+02 4.047720268490096786e-03
3.690000000000000000e+02 4.038124710800825891e-03
3.700000000000000000e+02 4.026993445214958195e-03
3.710000000000000000e+02 4.007879804756546774e-03
3.720000000000000000e+02 3.970413435669515115e-03
3.730000000000000000e+02 3.916417680012129234e-03
3.740000000000000000e+02 3.856096714433023855e-03
3.750000000000000000e+02 3.800707351980125558e-03
3.760000000000000000e+02 3.753021349321427735e-03
3.770000000000000000e+02 3.708251495007950510e-03
3.780000000000000000e+02 3.660634576700769454e-03
3.790000000000000000e+02 3.603590043938329369e-03
3.800000000000000000e+02 3.536657030043341421e-03
3.810000000000000000e+02 3.470284327869400161e-03
3.820000000000000000e+02 3.405990973393486707e-03
3.830000000000000000e+02 3.346272348159662086e-03
3.840000000000000000e+02 3.295077989379436439e-03
3.850000000000000000e+02 3.252267714983037277e-03
3.860000000000000000e+02 3.210415945841232476e-03
3.870000000000000000e+02 3.164261445636792468e-03
3.880000000000000000e+02 3.122411777337985930e-03
3.890000000000000000e+02 3.082699327347430355e-03
3.900000000000000000e+02 3.040841632304551456e-03
3.910000000000000000e+02 2.993270340125351626e-03
3.920000000000000000e+02 2.942447193780570527e-03
3.930000000000000000e+02 2.897658842644680165e-03
3.940000000000000000e+02 2.861953332288688732e-03
3.950000000000000000e+02 2.831873737043937109e-03
