# Spinless fermions Hamiltonian with random disorder and nearest neighbour interactions
# L=16 (size), J=0.5 (hoping amplitude), V=0.5 (interaction), W/J=10 (disorder strength)
# Evolution of Imbalance for point number 19 from fig2b (ED method)
# time t, Imbalance I

   0.00000000000000000   1.00000000000000133
   0.10000000000000001   0.99077534429034786
   0.20000000000000001   0.96483256491107405
   0.30000000000000004   0.92684945476251246
   0.40000000000000002   0.88308471723170301
   0.50000000000000000   0.83963824569911649
   0.60000000000000009   0.80092688913551213
   0.70000000000000007   0.76885716816275373
   0.80000000000000004   0.74289606489012450
   0.90000000000000002   0.72090845885793464
   1.00000000000000000   0.70037979794660321
   1.10000000000000009   0.67956092389167078
   1.20000000000000018   0.65816254908700755
   1.30000000000000004   0.63742692797244604
   1.40000000000000013   0.61962807107038964
   1.50000000000000000   0.60722832928184567
   1.60000000000000009   0.60200555585518001
   1.70000000000000018   0.60444562891888853
   1.80000000000000004   0.61358102961797489
   1.90000000000000013   0.62728762986781439
   2.00000000000000000   0.64289098664859357
   2.10000000000000009   0.65784148369983786
   2.20000000000000018   0.67022680115598710
   2.30000000000000027   0.67898835854522632
   2.40000000000000036   0.68384595135855986
   2.50000000000000000   0.68504830071397338
   2.60000000000000009   0.68310817133528512
   2.70000000000000018   0.67863807794353692
   2.80000000000000027   0.67230890328668624
   2.90000000000000036   0.66486839140440335
   3.00000000000000000   0.65713104256940791
   3.10000000000000009   0.64989563978290310
   3.20000000000000018   0.64382254612152834
   3.30000000000000027   0.63934976968551360
   3.40000000000000036   0.63670826935413072
   3.50000000000000000   0.63602810380178099
   3.60000000000000009   0.63746127644693829
   3.70000000000000018   0.64123392257052236
   3.80000000000000027   0.64758800443460940
   3.90000000000000036   0.65664469816673110
   4.00000000000000000   0.66826805758348662
   4.10000000000000053   0.68200182391360431
   4.20000000000000018   0.69710659810356668
   4.29999999999999982   0.71267426764257158
   4.40000000000000036   0.72777074823953891
   4.50000000000000000   0.74156190837627700
   4.60000000000000053   0.75339652002678581
   4.70000000000000018   0.76283788268429287
   4.80000000000000071   0.76964752380672796
   4.90000000000000036   0.77373517065479747
   5.00000000000000000   0.77510234721827143
   5.10000000000000053   0.77381584495634070
   5.20000000000000018   0.77003964149179760
   5.30000000000000071   0.76412419797732178
   5.40000000000000036   0.75671066395221509
   5.50000000000000000   0.74877710395523067
   5.60000000000000053   0.74155707962307515
   5.70000000000000018   0.73630620819705594
   5.80000000000000071   0.73396578736066620
   5.90000000000000036   0.73484055320111319
   6.00000000000000000   0.73843121753991436
   6.10000000000000053   0.74351954443915513
   6.20000000000000018   0.74850639160251076
   6.30000000000000071   0.75189575813140996
   6.40000000000000036   0.75275348064000425
   6.50000000000000000   0.75097831558559291
   6.60000000000000053   0.74729735197355196
   6.70000000000000018   0.74299890352741582
   6.80000000000000071   0.73950154631497389
   6.90000000000000036   0.73790174147055621
   7.00000000000000000   0.73863983300381331
   7.10000000000000053   0.74138353052563710
   7.20000000000000018   0.74516178956262935
   7.30000000000000071   0.74870507560117061
   7.40000000000000036   0.75087959050440878
   7.50000000000000000   0.75106546378295502
   7.60000000000000053   0.74934003978264285
   7.70000000000000018   0.74639121572344513
   7.80000000000000071   0.74318636784573089
   7.90000000000000036   0.74052454754485875
   8.00000000000000000   0.73865871748805978
   8.09999999999999964   0.73715616923320781
   8.20000000000000107   0.73506632729454302
   8.30000000000000071   0.73132561466544099
   8.40000000000000036   0.72521671201464599
   8.50000000000000000   0.71667421477824367
   8.59999999999999964   0.70630554578516258
   8.70000000000000107   0.69513407382106873
   8.80000000000000071   0.68419749662003027
   8.90000000000000036   0.67418670713376505
   9.00000000000000000   0.66527150077654973
   9.09999999999999964   0.65716053493827120
   9.20000000000000107   0.64933831962440480
   9.30000000000000071   0.64135789382881514
   9.40000000000000036   0.63306331032642027
   9.50000000000000000   0.62466258058211377
   9.60000000000000142   0.61664375694981666
   9.70000000000000107   0.60959394505439113
   9.80000000000000071   0.60401770711663638
   9.90000000000000036   0.60024413199091753
  10.00000000000000000   0.59846392060800091
  10.10000000000000142   0.59886842845011423
  10.20000000000000107   0.60180116158006247
  10.30000000000000071   0.60780825540702432
  10.40000000000000036   0.61750604435969314
  10.50000000000000000   0.63126758523804460
  10.60000000000000142   0.64883645469349061
  10.70000000000000107   0.66905547168644397
  10.80000000000000071   0.68989945502674577
  10.90000000000000036   0.70890159212160464
  11.00000000000000000   0.72388950575856903
  11.10000000000000142   0.73377526098227264
  11.20000000000000107   0.73906485842730540
  11.30000000000000071   0.74182448376374199
  11.40000000000000036   0.74504744164792447
  11.50000000000000000   0.75161889366598578
  11.60000000000000142   0.76325686063886866
  11.70000000000000107   0.77983142682664319
  11.80000000000000071   0.79932013078632247
  11.90000000000000036   0.81841354126230670
  12.00000000000000000   0.83354633854506166
  12.10000000000000142   0.84198769853036071
  12.20000000000000107   0.84262326718091252
  12.30000000000000071   0.83618601999882181
  12.40000000000000036   0.82489031411795755
  12.50000000000000000   0.81162194389708731
  12.60000000000000142   0.79897405956833945
  12.70000000000000107   0.78845537854336900
  12.80000000000000071   0.78012586039302390
  12.90000000000000036   0.77276060415979042
  13.00000000000000000   0.76445619070399951
  13.10000000000000142   0.75344009536001411
  13.20000000000000107   0.73878173241156919
  13.30000000000000071   0.72075975338610698
  13.40000000000000036   0.70079054000747576
  13.50000000000000000   0.68099786946028318
  13.60000000000000142   0.66362202318883923
  13.70000000000000107   0.65048111296071598
  13.80000000000000071   0.64262233779470423
  13.90000000000000036   0.64019696037140683
  14.00000000000000000   0.64252111067082096
  14.10000000000000142   0.64826644088132956
  14.20000000000000107   0.65573818604160539
  14.30000000000000071   0.66320768762956295
  14.40000000000000036   0.66925488705607727
  14.50000000000000000   0.67305402395800296
  14.60000000000000142   0.67452592747852869
  14.70000000000000107   0.67429971453844917
  14.80000000000000071   0.67347663249983802
  14.90000000000000036   0.67325503428179179
  15.00000000000000000   0.67453262483855214
  15.10000000000000142   0.67762160167960572
  15.20000000000000107   0.68217696679561979
  15.30000000000000071   0.68735715836082167
  15.40000000000000036   0.69214532741424528
  15.50000000000000000   0.69570256909977291
  15.60000000000000142   0.69762490204888694
  15.70000000000000107   0.69802524746627670
  15.80000000000000071   0.69743101411907116
  15.90000000000000036   0.69654974922885937
  16.00000000000000000   0.69599556666607132
  16.10000000000000142   0.69608181838501504
  16.19999999999999929   0.69676471321336064
  16.30000000000000071   0.69776541852127905
  16.40000000000000213   0.69881732834095678
  16.50000000000000000   0.69991407219829505
  16.60000000000000142   0.70141307994534052
  16.69999999999999929   0.70390177650629604
  16.80000000000000071   0.70784507313554423
  16.90000000000000213   0.71315534874303177
  17.00000000000000000   0.71889780978867179
  17.10000000000000142   0.72332015232631908
  17.19999999999999929   0.72427322209114275
  17.30000000000000071   0.71991610903280101
  17.40000000000000213   0.70945428925724863
  17.50000000000000000   0.69361609230862276
  17.60000000000000142   0.67465736514829966
  17.69999999999999929   0.65586044371322760
  17.80000000000000071   0.64068248884034062
  17.90000000000000213   0.63183134333863933
  18.00000000000000000   0.63056355124907881
  18.10000000000000142   0.63641654332325159
  18.19999999999999929   0.64744516358019466
  18.30000000000000071   0.66087953549099698
  18.40000000000000213   0.67399690623724950
  18.50000000000000000   0.68493428691838520
  18.60000000000000142   0.69318150075162976
  18.69999999999999929   0.69959065392339492
  18.80000000000000071   0.70589772399171125
  18.90000000000000213   0.71392569643489678
  19.00000000000000000   0.72476124467134362
  19.10000000000000142   0.73821439557169466
  19.20000000000000284   0.75276813651636332
  19.30000000000000071   0.76603859524459117
  19.40000000000000213   0.77557041220613865
  19.50000000000000000   0.77966621934912750
  19.60000000000000142   0.77794396114011843
  19.70000000000000284   0.77142991894997825
  19.80000000000000071   0.76217795269078481
  19.90000000000000213   0.75257998622624611
  20.00000000000000000   0.74463072717663914
  20.10000000000000142   0.73939994682826882
  20.20000000000000284   0.73686498939946454
  20.30000000000000071   0.73611561546547100
  20.40000000000000213   0.73581968403969800
  20.50000000000000000   0.73476849445184267
  20.60000000000000142   0.73231426568955515
  20.70000000000000284   0.72856051759318241
  20.80000000000000071   0.72425344811816317
  20.90000000000000213   0.72042740969726871
  21.00000000000000000   0.71794850971383206
  21.10000000000000142   0.71713940155890443
  21.20000000000000284   0.71763120064274810
  21.30000000000000071   0.71848613167624942
  21.40000000000000213   0.71851555901004172
  21.50000000000000000   0.71664307588882892
  21.60000000000000142   0.71216669527553789
  21.70000000000000284   0.70484702657084453
  21.80000000000000071   0.69484268387270975
  21.90000000000000213   0.68257823338986867
  22.00000000000000000   0.66863612718875476
  22.10000000000000142   0.65371932503640551
  22.20000000000000284   0.63866820842367122
  22.30000000000000071   0.62447210359755378
  22.40000000000000213   0.61221594861496298
  22.50000000000000000   0.60294376091421409
  22.60000000000000142   0.59747592440220432
  22.70000000000000284   0.59625259674411279
  22.80000000000000071   0.59927022066118185
  22.90000000000000213   0.60613733215565591
  23.00000000000000000   0.61622413386761732
  23.10000000000000142   0.62884365767126815
  23.20000000000000284   0.64339389169408701
  23.30000000000000071   0.65940866858767211
  23.40000000000000213   0.67650168279146916
  23.50000000000000000   0.69423189319387635
  23.60000000000000142   0.71195648899039299
  23.70000000000000284   0.72875353061616455
  23.80000000000000071   0.74347771710210842
  23.90000000000000213   0.75496050818090854
  24.00000000000000000   0.76229946749497624
  24.10000000000000142   0.76513178531892168
  24.20000000000000284   0.76377947031604232
  24.30000000000000071   0.75919579494508693
  24.40000000000000213   0.75271818819555680
  24.50000000000000000   0.74570986666264583
  24.60000000000000142   0.73921726045201441
  24.70000000000000284   0.73376177765009665
  24.80000000000000071   0.72932466086124270
  24.90000000000000213   0.72549932864114342
  25.00000000000000000   0.72171824275885488
  25.10000000000000142   0.71744649623584755
  25.20000000000000284   0.71227889952546741
  25.30000000000000071   0.70595186920523334
  25.40000000000000213   0.69833654315590910
  25.50000000000000000   0.68947861487896134
  25.60000000000000142   0.67969530782815901
  25.70000000000000284   0.66967050545576512
  25.80000000000000071   0.66045547706652397
  25.90000000000000213   0.65331107660876919
  26.00000000000000000   0.64940359231439082
  26.10000000000000142   0.64944764577176406
  26.20000000000000284   0.65343202533580069
  26.30000000000000071   0.66054741602286071
  26.40000000000000213   0.66936719805870248
  26.50000000000000000   0.67824236586789954
  26.60000000000000142   0.68579317449104282
  26.70000000000000284   0.69134068334806564
  26.80000000000000071   0.69513385209175338
  26.90000000000000213   0.69828777256534202
  27.00000000000000000   0.70243703567518723
  27.10000000000000142   0.70919925829657582
  27.20000000000000284   0.71961170103111871
  27.30000000000000071   0.73372622869033544
  27.40000000000000213   0.75050864078365531
  27.50000000000000000   0.76808779852290676
  27.60000000000000142   0.78426667408789752
  27.70000000000000284   0.79709816375169773
  27.80000000000000071   0.80530280985541181
  27.90000000000000213   0.80838619931717115
  28.00000000000000000   0.80646300642443358
  28.10000000000000142   0.79993149026123289
  28.20000000000000284   0.78919325772491500
  28.30000000000000071   0.77455858985540449
  28.40000000000000213   0.75635894433838036
  28.50000000000000000   0.73517457785491169
  28.60000000000000142   0.71203016351739690
  28.70000000000000284   0.68843002481383730
  28.80000000000000071   0.66617868400169988
  28.90000000000000213   0.64702706409596722
  29.00000000000000000   0.63226349726175801
  29.10000000000000142   0.62240255984428627
  29.20000000000000284   0.61709937060009301
  29.30000000000000071   0.61533915894312197
  29.40000000000000213   0.61584897834400432
  29.50000000000000000   0.61758833817729641
  29.60000000000000142   0.62013280302164664
  29.70000000000000284   0.62378939696699376
  29.80000000000000071   0.62937398278352563
  29.90000000000000213   0.63771280193999946
  30.00000000000000000   0.64905458195591959
  30.10000000000000142   0.66263989372573673
  30.20000000000000284   0.67663393764523183
  30.30000000000000071   0.68849472884823271
  30.40000000000000213   0.69567467235108715
  30.50000000000000000   0.69641545955567041
  30.60000000000000142   0.69035294252976509
  30.70000000000000284   0.67871462128441740
  30.80000000000000071   0.66403601797511969
  30.90000000000000213   0.64948597508874895
  31.00000000000000000   0.63801747495643535
  31.10000000000000142   0.63161159860180471
  31.20000000000000284   0.63084614407404749
  31.30000000000000071   0.63491214020757614
  31.40000000000000213   0.64205688764706015
  31.50000000000000000   0.65029733430139725
  31.60000000000000142   0.65816451292728084
  31.70000000000000284   0.66523334823612035
  31.80000000000000071   0.67226382853151245
  31.90000000000000213   0.68090787102692585
  32.00000000000000000   0.69308184811000673
  32.10000000000000142   0.71021948630598264
  32.20000000000000284   0.73266119735103596
  32.30000000000000426   0.75938499853473251
  32.39999999999999858   0.78815837550611922
  32.50000000000000000   0.81604007108743648
  32.60000000000000142   0.84004760031842940
  32.70000000000000284   0.85777343054789923
  32.80000000000000426   0.86778374945731784
  32.89999999999999858   0.86973379492499381
  33.00000000000000000   0.86423233817858591
  33.10000000000000142   0.85254747496484318
  33.20000000000000284   0.83625782568356521
  33.30000000000000426   0.81693361484391902
  33.39999999999999858   0.79590349486669199
  33.50000000000000000   0.77413818283617652
  33.60000000000000142   0.75226017407048329
  33.70000000000000284   0.73066373692089293
  33.80000000000000426   0.70970022439404190
  33.89999999999999858   0.68985926406200315
  34.00000000000000000   0.67187031193892488
  34.10000000000000142   0.65667065016035042
  34.20000000000000284   0.64523275112253076
  34.30000000000000426   0.63830076535589064
  34.39999999999999858   0.63612990750975573
  34.50000000000000000   0.63833307226465030
  34.60000000000000142   0.64390806655749278
  34.70000000000000284   0.65145652817331867
  34.80000000000000426   0.65953629543181447
  34.89999999999999858   0.66703920884549395
  35.00000000000000000   0.67347247865386628
  35.10000000000000142   0.67904603289874321
  35.20000000000000284   0.68452296668773172
  35.30000000000000426   0.69086314078037137
  35.39999999999999858   0.69876448933047430
  35.50000000000000000   0.70825897631668533
  35.60000000000000142   0.71852339848326530
  35.70000000000000284   0.72800362318839995
  35.80000000000000426   0.73483651150640128
  35.89999999999999858   0.73743000779499845
  36.00000000000000000   0.73498554252438797
  36.10000000000000142   0.72775871311685936
  36.20000000000000284   0.71695523958463925
  36.30000000000000426   0.70430770082584648
  36.39999999999999858   0.69150884616636388
  36.50000000000000000   0.67973067374038143
  36.60000000000000142   0.66941141198751353
  36.70000000000000284   0.66036822796352246
  36.80000000000000426   0.65215075357699659
  36.89999999999999858   0.64445466562874909
  37.00000000000000000   0.63740505986984841
  37.10000000000000142   0.63159238914546745
  37.20000000000000284   0.62785883729397973
  37.30000000000000426   0.62693786811235308
  37.39999999999999858   0.62910560553236361
  37.50000000000000000   0.63399575083590931
  37.60000000000000142   0.64066700012559918
  37.70000000000000284   0.64791381618256128
  37.80000000000000426   0.65470897751151846
  37.89999999999999858   0.66059903552529464
  38.00000000000000000   0.66587729227808601
  38.10000000000000142   0.67144310809552343
  38.20000000000000284   0.67839071511622429
  38.30000000000000426   0.68749374227735827
  38.40000000000000568   0.69880315569275919
  38.50000000000000000   0.71153113034848592
  38.60000000000000142   0.72427381707274263
  38.70000000000000284   0.73548708947628905
  38.80000000000000426   0.74402978291068900
  38.90000000000000568   0.74956588352950226
  39.00000000000000000   0.75267543807454906
  39.10000000000000142   0.75463812949546327
  39.20000000000000284   0.75697799221803419
  39.30000000000000426   0.76094354475931958
  39.40000000000000568   0.76711178290586912
  39.50000000000000000   0.77524529196658776
  39.60000000000000142   0.78442917054294725
  39.70000000000000284   0.79341388535353041
  39.80000000000000426   0.80102915239207972
  39.90000000000000568   0.80652688865846522
  40.00000000000000000   0.80974987790046149
  40.10000000000000142   0.81108712964942142
  40.20000000000000284   0.81124609218750476
  40.30000000000000426   0.81092781350596987
  40.40000000000000568   0.81051865325331407
  40.50000000000000000   0.80990176643297218
  40.60000000000000142   0.80844564772055305
  40.70000000000000284   0.80516275702517182
  40.80000000000000426   0.79897475733386514
  40.90000000000000568   0.78899415835310349
  41.00000000000000000   0.77474199703874613
  41.10000000000000142   0.75625775821453312
  41.20000000000000284   0.73410162556301217
  41.30000000000000426   0.70928079331368643
  41.40000000000000568   0.68313893293143679
  41.50000000000000000   0.65723181411790310
  41.60000000000000142   0.63318728200248808
  41.70000000000000284   0.61253581527949708
  41.80000000000000426   0.59651203000607955
  41.90000000000000568   0.58586007722438393
  42.00000000000000000   0.58070104458731919
  42.10000000000000142   0.58051437219210045
  42.20000000000000284   0.58424759652867420
  42.30000000000000426   0.59052414520921315
  42.40000000000000568   0.59789532854551442
  42.50000000000000000   0.60508694525171969
  42.60000000000000142   0.61120626645255338
  42.70000000000000284   0.61588179258040987
