# Spinless fermions Hamiltonian with random disorder and nearest neighbour interactions
# L=64x1 (size), J=0.5 (hoping amplitude), V=0.5 (interaction), W/J=6 (disorder strength), N=30 (disorder realizations), T=25 (number of trajectories)
# Evolution of Imbalance in time (fTWA method)
# time t, Imbalance I

   0.00000000000000000   1.00000000000000000
   0.10000000000000001   0.98959005795178545
   0.20000000000000001   0.96086459276550229
   0.30000000000000004   0.91649522064770095
   0.40000000000000002   0.86028202468875492
   0.50000000000000000   0.79655620716499620
   0.59999999999999998   0.72956050974435438
   0.69999999999999996   0.66293204064222200
   0.79999999999999993   0.59937828961347361
   0.89999999999999991   0.54058117950552353
   0.99999999999999989   0.48730451066403202
   1.09999999999999987   0.43963649919205461
   1.19999999999999996   0.39728148238739813
   1.30000000000000004   0.35982264716101653
   1.40000000000000013   0.32690340263086670
   1.50000000000000022   0.29830849577774365
   1.60000000000000031   0.27395654903931649
   1.70000000000000040   0.25383559485362733
   1.80000000000000049   0.23791955779277196
   1.90000000000000058   0.22609819000779918
   2.00000000000000044   0.21814031294559610
   2.10000000000000053   0.21369568889743390
   2.20000000000000062   0.21232878762731308
   2.30000000000000071   0.21357005089493938
   2.40000000000000080   0.21696777318176494
   2.50000000000000089   0.22212647350825793
   2.60000000000000098   0.22872409131157176
   2.70000000000000107   0.23650751858596944
   2.80000000000000115   0.24527202884175670
   2.90000000000000124   0.25483449342843606
   3.00000000000000133   0.26501181414490754
   3.10000000000000142   0.27561301557281565
   3.20000000000000151   0.28644628887525192
   3.30000000000000160   0.29733516427277673
   3.40000000000000169   0.30813532065219518
   3.50000000000000178   0.31874604251217742
   3.60000000000000187   0.32911456713659820
   3.70000000000000195   0.33923421098844042
   3.80000000000000204   0.34913757761338282
   3.90000000000000213   0.35888569871582005
   4.00000000000000178   0.36855382253241153
   4.10000000000000142   0.37821526729209948
   4.20000000000000107   0.38792594324511559
   4.30000000000000071   0.39771282025610005
   4.40000000000000036   0.40756880093794512
   4.50000000000000000   0.41745402236782092
   4.59999999999999964   0.42730070263515291
   4.69999999999999929   0.43701715132856322
   4.79999999999999893   0.44648818825571940
   4.89999999999999858   0.45557349946693798
   4.99999999999999822   0.46410920419438390
   5.09999999999999787   0.47191754184181234
   5.19999999999999751   0.47882501738472927
   5.29999999999999716   0.48468429618855247
   5.39999999999999680   0.48939345418360636
   5.49999999999999645   0.49290841840087507
   5.59999999999999609   0.49524782842862630
   5.69999999999999574   0.49649129483609328
   5.79999999999999538   0.49677153474985219
   5.89999999999999503   0.49625965998031119
   5.99999999999999467   0.49514288247822785
   6.09999999999999432   0.49359578401031967
   6.19999999999999396   0.49174944024123374
   6.29999999999999361   0.48966559812560817
   6.39999999999999325   0.48732415695239018
   6.49999999999999289   0.48462980665573552
   6.59999999999999254   0.48143779783812268
   6.69999999999999218   0.47759166104468737
   6.79999999999999183   0.47296106715472547
   6.89999999999999147   0.46746876145611893
   6.99999999999999112   0.46110112412813375
   7.09999999999999076   0.45390365341074607
   7.19999999999999041   0.44596676986950379
   7.29999999999999005   0.43740806249391317
   7.39999999999998970   0.42835588660009610
   7.49999999999998934   0.41893803192008644
   7.59999999999998899   0.40927799424740896
   7.69999999999998863   0.39949900357952356
   7.79999999999998828   0.38973183739800621
   7.89999999999998792   0.38011898436780023
   7.99999999999998757   0.37080847221388730
   8.09999999999998721   0.36193650024380658
   8.19999999999998685   0.35360546934888620
   8.29999999999998650   0.34586797467680214
   8.39999999999998614   0.33872527778950490
   8.49999999999998579   0.33214238633508680
   8.59999999999998543   0.32607495135760611
   8.69999999999998508   0.32049862206886121
   8.79999999999998472   0.31543056248895257
   8.89999999999998437   0.31093563496332066
   8.99999999999998401   0.30711528740802851
   9.09999999999998366   0.30408330848735260
   9.19999999999998330   0.30193712911678511
   9.29999999999998295   0.30073459258706969
   9.39999999999998259   0.30048351883779284
   9.49999999999998224   0.30114591182884737
   9.59999999999998188   0.30265320175124161
   9.69999999999998153   0.30492617271576089
   9.79999999999998117   0.30789366341675667
   9.89999999999998082   0.31150594744363053
   9.99999999999998046   0.31573999240076661
  10.09999999999998010   0.32059447284845277
  10.19999999999997975   0.32607434842206595
  10.29999999999997939   0.33216923168780338
  10.39999999999997904   0.33883397325479780
  10.49999999999997868   0.34597967282319009
  10.59999999999997833   0.35347790231852494
  10.69999999999997797   0.36117472366255621
  10.79999999999997762   0.36890845378877374
  10.89999999999997726   0.37652651277020066
  10.99999999999997691   0.38389923675176646
  11.09999999999997655   0.39092973239842688
  11.19999999999997620   0.39755835959373592
  11.29999999999997584   0.40376008218489423
  11.39999999999997549   0.40953414090844026
  11.49999999999997513   0.41488804081233061
  11.59999999999997478   0.41982026943143258
  11.69999999999997442   0.42430744479130750
  11.79999999999997407   0.42830089453902187
  11.89999999999997371   0.43173457258802356
  11.99999999999997335   0.43454166921177112
  12.09999999999997300   0.43667350821521372
  12.19999999999997264   0.43811321839257605
  12.29999999999997229   0.43887872222002650
  12.39999999999997193   0.43901424367038461
  12.49999999999997158   0.43857481660088310
  12.59999999999997122   0.43761101718869289
  12.69999999999997087   0.43615934637986881
  12.79999999999997051   0.43423918688917701
  12.89999999999997016   0.43185408547499143
  12.99999999999996980   0.42899543145145891
  13.09999999999996945   0.42564855417811154
  13.19999999999996909   0.42180151932711846
  13.29999999999996874   0.41745459395100792
  13.39999999999996838   0.41262648080731085
  13.49999999999996803   0.40735512489959264
  13.59999999999996767   0.40169500381711370
  13.69999999999996732   0.39571470996907238
  13.79999999999996696   0.38949595743242987
  13.89999999999996660   0.38313117901984278
  13.99999999999996625   0.37671670962779741
  14.09999999999996589   0.37034282364986432
  14.19999999999996554   0.36408615275842937
  14.29999999999996518   0.35800955165013781
  14.39999999999996483   0.35216925434477070
  14.49999999999996447   0.34662381888778759
  14.59999999999996412   0.34143890279644945
  14.69999999999996376   0.33668640018893564
  14.79999999999996341   0.33244079142258404
  14.89999999999996305   0.32877520762520535
  14.99999999999996270   0.32575596782832700
  15.09999999999996234   0.32343264830427843
  15.19999999999996199   0.32182392987599551
  15.29999999999996163   0.32090467846364373
  15.39999999999996128   0.32060193951993649
  15.49999999999996092   0.32080451520829562
  15.59999999999996056   0.32138434506853103
  15.69999999999996021   0.32222235672534200
  15.79999999999995985   0.32323042036920585
  15.89999999999995950   0.32436466144538056
  15.99999999999995914   0.32562979432217831
  16.09999999999995879   0.32707571101968841
  16.19999999999996021   0.32878657599515210
  16.29999999999996163   0.33086221420740225
  16.39999999999996305   0.33339344170797691
  16.49999999999996447   0.33643629199968450
  16.59999999999996589   0.33999266167652792
  16.69999999999996732   0.34400442506047252
  16.79999999999996874   0.34836341904942886
  16.89999999999997016   0.35293273975392975
  16.99999999999997158   0.35756993320136721
  17.09999999999997300   0.36214359093294912
  17.19999999999997442   0.36654087450030004
  17.29999999999997584   0.37066970260028564
  17.39999999999997726   0.37446097814054780
  17.49999999999997868   0.37787301286825059
  17.59999999999998010   0.38089639479020027
  17.69999999999998153   0.38355630585986356
  17.79999999999998295   0.38591047405965034
  17.89999999999998437   0.38804204003827075
  17.99999999999998579   0.39004667775284674
  18.09999999999998721   0.39201339158989490
  18.19999999999998863   0.39400050053561136
  18.29999999999999005   0.39601240481702371
  18.39999999999999147   0.39798610777075705
  18.49999999999999289   0.39979547656806114
  18.59999999999999432   0.40127492058661629
  18.69999999999999574   0.40225594128816611
  18.79999999999999716   0.40260508051081523
  18.89999999999999858   0.40225256974476203
  19.00000000000000000   0.40120529350567480
  19.10000000000000142   0.39954192051328202
  19.20000000000000284   0.39739131962388380
  19.30000000000000426   0.39489907628936538
  19.40000000000000568   0.39219147190907561
  19.50000000000000711   0.38934900993387106
  19.60000000000000853   0.38639918552871699
  19.70000000000000995   0.38333064362656916
  19.80000000000001137   0.38012190679523755
  19.90000000000001279   0.37677209187505240
  20.00000000000001421   0.37332111966023163
  20.10000000000001563   0.36985227289017969
  20.20000000000001705   0.36647754656040760
  20.30000000000001847   0.36331209742466203
  20.40000000000001990   0.36044611425110279
  20.50000000000002132   0.35792169665042239
  20.60000000000002274   0.35572105924954700
  20.70000000000002416   0.35377084475441767
  20.80000000000002558   0.35196394007968829
  20.90000000000002700   0.35019442032772158
  21.00000000000002842   0.34839523397245131
  21.10000000000002984   0.34656534031584396
  21.20000000000003126   0.34477549559279647
  21.30000000000003268   0.34314918781187520
  21.40000000000003411   0.34182418928247527
  21.50000000000003553   0.34090681877329271
  21.60000000000003695   0.34043329230307323
  21.70000000000003837   0.34035077961337407
  21.80000000000003979   0.34052575916647509
  21.90000000000004121   0.34077952598065203
  22.00000000000004263   0.34094160866928358
  22.10000000000004405   0.34090464394341219
  22.20000000000004547   0.34066252457835117
  22.30000000000004690   0.34031858952603822
  22.40000000000004832   0.34006048783828291
  22.50000000000004974   0.34010958623405052
  22.60000000000005116   0.34066096539124940
  22.70000000000005258   0.34183191712613198
  22.80000000000005400   0.34363259575002109
  22.90000000000005542   0.34596510719209328
  23.00000000000005684   0.34864958324387285
  23.10000000000005826   0.35146889889664235
  23.20000000000005969   0.35421889269168944
  23.30000000000006111   0.35674994002098531
  23.40000000000006253   0.35898927527206681
  23.50000000000006395   0.36094034081550330
  23.60000000000006537   0.36266298875290687
  23.70000000000006679   0.36424357095710685
  23.80000000000006821   0.36576486573293188
  23.90000000000006963   0.36728279048769408
  24.00000000000007105   0.36881263872089182
  24.10000000000007248   0.37032527428760081
  24.20000000000007390   0.37175360350855369
  24.30000000000007532   0.37300907762885033
  24.40000000000007674   0.37400495641452208
  24.50000000000007816   0.37467948896046932
  24.60000000000007958   0.37501159003630785
  24.70000000000008100   0.37502476714873539
  24.80000000000008242   0.37477966187958500
  24.90000000000008384   0.37435922327082699
  25.00000000000008527   0.37385219723983060
  25.10000000000008669   0.37333940191822301
  25.20000000000008811   0.37288364884317404
  25.30000000000008953   0.37252124062114211
  25.40000000000009095   0.37225394901301079
  25.50000000000009237   0.37204429457989469
  25.60000000000009379   0.37181936153411071
  25.70000000000009521   0.37148634354573140
  25.80000000000009663   0.37095750279192796
  25.90000000000009805   0.37017676270861011
  26.00000000000009948   0.36913783654028454
  26.10000000000010090   0.36788602577727941
  26.20000000000010232   0.36650193940844572
  26.30000000000010374   0.36507292231433758
  26.40000000000010516   0.36366338044385838
  26.50000000000010658   0.36229565161541633
  26.60000000000010800   0.36094821647640918
  26.70000000000010942   0.35957039173270672
  26.80000000000011084   0.35810632514414042
  26.90000000000011227   0.35651903021818537
  27.00000000000011369   0.35480718303257813
  27.10000000000011511   0.35301096983719649
  27.20000000000011653   0.35120628946823795
  27.30000000000011795   0.34948869315476389
  27.40000000000011937   0.34795052272971955
  27.50000000000012079   0.34665702325501230
  27.60000000000012221   0.34562840302104336
  27.70000000000012363   0.34483319931179629
  27.80000000000012506   0.34419447352036736
  27.90000000000012648   0.34360706605277902
  28.00000000000012790   0.34296282163242719
  28.10000000000012932   0.34217992614732429
  28.20000000000013074   0.34123048710301324
  28.30000000000013216   0.34015811497327819
  28.40000000000013358   0.33907725798344324
  28.50000000000013500   0.33815023168289715
  28.60000000000013642   0.33754563920712877
  28.70000000000013785   0.33739011615414399
  28.80000000000013927   0.33772956047133496
  28.90000000000014069   0.33851334525332955
  29.00000000000014211   0.33960666507251197
  29.10000000000014353   0.34082659280847744
  29.20000000000014495   0.34199071947575976
  29.30000000000014637   0.34296470278129254
  29.40000000000014779   0.34369610371446419
  29.50000000000014921   0.34422576021168932
  29.60000000000015064   0.34467389034534252
  29.70000000000015206   0.34520499933160498
  29.80000000000015348   0.34598173540877564
  29.90000000000015490   0.34712131050256473
  30.00000000000015632   0.34866745766228752
  30.10000000000015774   0.35058576884385539
  30.20000000000015916   0.35278185748279317
  30.30000000000016058   0.35513334968533566
  30.40000000000016200   0.35752221853226562
  30.50000000000016342   0.35985569418112656
  30.60000000000016485   0.36207084389874877
  30.70000000000016627   0.36412618110154782
  30.80000000000016769   0.36598896418609767
  30.90000000000016911   0.36762649922904250
  31.00000000000017053   0.36900471653990430
  31.10000000000017195   0.37009171776794642
  31.20000000000017337   0.37086197516332264
  31.30000000000017479   0.37129877292166702
  31.40000000000017621   0.37139525032290444
  31.50000000000017764   0.37115513541547740
  31.60000000000017906   0.37059325005909183
  31.70000000000018048   0.36973521427536299
  31.80000000000018190   0.36861614563658457
  31.90000000000018332   0.36727843473201771
  32.00000000000018474   0.36576821701472689
  32.10000000000018616   0.36412976478652581
  32.20000000000018758   0.36239775354623521
  32.30000000000018900   0.36058928673193363
  32.40000000000019043   0.35869947086953874
  32.50000000000019185   0.35670457231422847
  32.60000000000019327   0.35457430698228387
  32.70000000000019469   0.35229052081563200
  32.80000000000019611   0.34986588160768717
  32.90000000000019753   0.34735516068815481
  33.00000000000019895   0.34485372904931499
  33.10000000000020037   0.34248213050845411
  33.20000000000020179   0.34036067224210492
  33.30000000000020322   0.33858196643775362
  33.40000000000020464   0.33719036850034856
  33.50000000000020606   0.33617455116678091
  33.60000000000020748   0.33547459637781368
  33.70000000000020890   0.33500067080635981
  33.80000000000021032   0.33465792427456759
  33.90000000000021174   0.33437146833024134
  34.00000000000021316   0.33410552371211377
  34.10000000000021458   0.33387190594706773
  34.20000000000021600   0.33372493357975686
  34.30000000000021743   0.33374278907160271
  34.40000000000021885   0.33399928072771579
  34.50000000000022027   0.33453376711812927
  34.60000000000022169   0.33532878460655208
  34.70000000000022311   0.33630332446737887
  34.80000000000022453   0.33732525204558678
  34.90000000000022595   0.33824066026997113
  35.00000000000022737   0.33891270091985343
  35.10000000000022879   0.33925897187561760
  35.20000000000023022   0.33927628274746430
  35.30000000000023164   0.33904520245692926
  35.40000000000023306   0.33871311277847566
  35.50000000000023448   0.33846088149957038
  35.60000000000023590   0.33846230723530313
  35.70000000000023732   0.33884620934383358
  35.80000000000023874   0.33966935123232556
  35.90000000000024016   0.34090562585421413
  36.00000000000024158   0.34245345654389764
  36.10000000000024301   0.34415911540946292
  36.20000000000024443   0.34584932065673196
  36.30000000000024585   0.34736393928917614
  36.40000000000024727   0.34858016069317582
  36.50000000000024869   0.34942323796211183
  36.60000000000025011   0.34986424861080051
  36.70000000000025153   0.34991002970021690
  36.80000000000025295   0.34959239283901644
  36.90000000000025437   0.34896186404075508
  37.00000000000025580   0.34808646938078358
  37.10000000000025722   0.34705158022928262
  37.20000000000025864   0.34595557261911131
  37.30000000000026006   0.34489852620093808
  37.40000000000026148   0.34396540113210522
  37.50000000000026290   0.34320871945931192
  37.60000000000026432   0.34263725924962180
  37.70000000000026574   0.34221605324893795
  37.80000000000026716   0.34187949699441994
  37.90000000000026859   0.34155465201918228
  38.00000000000027001   0.34118743297157283
  38.10000000000027143   0.34076235394989896
  38.20000000000027285   0.34030862348481689
  38.30000000000027427   0.33989113050612679
  38.40000000000027569   0.33959089892078287
  38.50000000000027711   0.33948232013538543
  38.60000000000027853   0.33961350315257383
  38.70000000000027995   0.33999378469921748
  38.80000000000028137   0.34059083738759988
  38.90000000000028280   0.34133859389329269
  39.00000000000028422   0.34215458368992929
  39.10000000000028564   0.34296090203984247
  39.20000000000028706   0.34369946239482235
  39.30000000000028848   0.34433345198846754
  39.40000000000028990   0.34483435178569538
  39.50000000000029132   0.34516339133084240
  39.60000000000029274   0.34526082836696864
  39.70000000000029416   0.34505215871121897
  39.80000000000029559   0.34447020495962671
  39.90000000000029701   0.34348328405506467
  40.00000000000029843   0.34211732386089799
  40.10000000000029985   0.34046348753085243
  40.20000000000030127   0.33866846152503960
  40.30000000000030269   0.33690901970307702
  40.40000000000030411   0.33535579842945584
  40.50000000000030553   0.33413457220488901
  40.60000000000030695   0.33329623455486779
  40.70000000000030838   0.33280666184975838
  40.80000000000030980   0.33256261618721311
  40.90000000000031122   0.33243056199266541
  41.00000000000031264   0.33229561127940210
  41.10000000000031406   0.33210261536510605
  41.20000000000031548   0.33187378094098480
  41.30000000000031690   0.33169645823732363
  41.40000000000031832   0.33168652392874642
  41.50000000000031974   0.33194164602456772
  41.60000000000032117   0.33250120384681792
  41.70000000000032259   0.33332582554147444
  41.80000000000032401   0.33430207105639986
  41.90000000000032543   0.33527012957155866
  42.00000000000032685   0.33606638219256363
  42.10000000000032827   0.33656883156748357
  42.20000000000032969   0.33673238547116757
  42.30000000000033111   0.33660378827298892
  42.40000000000033253   0.33631182212300892
  42.50000000000033396   0.33603492990317685
  42.60000000000033538   0.33595403606371177
