# Long range Heisenberg model
# L = 20, J = 1.0, Delta = 1.0
# Line representing the frequency omega* for which I(omega*) = 0.9
# omega*, Alpha

 1.14173  1.00317
 1.12715  1.01288
 1.11268  1.02263
 1.09833  1.0324
 1.08408  1.04219
 1.06984  1.05199
 1.05554  1.06177
 1.04108  1.07152
 1.02637  1.0812
 1.01134  1.09082
 0.996066  1.10037
 0.983917  1.11061
 0.971402  1.12077
 0.958833  1.13093
 0.946333  1.1411
 0.933561  1.15122
 0.920731  1.16132
 0.907687  1.17138
 0.894469  1.1814
 0.881014  1.19138
 0.867526  1.20134
 0.856662  1.21182
 0.845242  1.22218
 0.834011  1.23259
 0.822547  1.24295
 0.810803  1.25327
 0.798908  1.26355
 0.786777  1.27379
 0.774519  1.28401
 0.76211  1.2942
 0.750421  1.30451
 0.740068  1.31506
 0.729526  1.32558
 0.718799  1.33607
 0.707957  1.34654
 0.696875  1.35696
 0.685707  1.36738
 0.674416  1.37777
 0.662885  1.38812
 0.651121  1.39843
 0.640838  1.40899
 0.63072  1.41958
 0.620409  1.43013
 0.609913  1.44066
 0.599156  1.45114
 0.588244  1.4616
 0.577031  1.47201
 0.565582  1.48237
 0.55388  1.49269
 0.54204  1.50298
 0.531563  1.51351
 0.520735  1.52399
 0.509618  1.53441
 0.49811  1.54477
 0.48621  1.55505
 0.474047  1.56529
 0.461374  1.57542
 0.448067  1.58543
 0.43421  1.59531
 0.421106  1.60535
 0.408665  1.61553
 0.395776  1.62562
 0.382265  1.63558
 0.368457  1.64548
 0.353934  1.65521
 0.339011  1.66484
 0.323609  1.67435
 0.307609  1.68371
 0.291427  1.69301
 0.275346  1.70233
 0.261104  1.71213
 0.246304  1.72179
 0.230603  1.73122
 0.214337  1.7405
 0.197241  1.74954
 0.178755  1.75812
 0.158232  1.76593
 0.136174  1.77304
 0.113693  1.77993
 0.0916468  1.78705
 0.0696396  1.79416
 0.0557314  1.80357
 0.052047  1.81481
 0.0487823  1.82607
 0.0456819  1.83733
 0.0427817  1.84861
 0.0401111  1.85989
 0.0376354  1.87118
 0.0351478  1.88247
 0.0329152  1.89376
 0.0342745  1.90497
 0.039789  1.91608
 0.0436738  1.9273
 0.045932  1.9386
 0.0480478  1.9499
 0.0499926  1.96121
 0.0514529  1.97252
 0.0527139  1.98384
 0.0530284  1.99519
 0.0558541  2.00646
 0.0597726  2.01768
 0.0647141  2.02884
 0.0684308  2.04007
 0.0714874  2.05134
 0.074435  2.06261
 0.0771681  2.07389
 0.0793526  2.08519
 0.0811629  2.0965
 0.0838111  2.10778
 0.0871612  2.11903
 0.090974  2.13026
 0.0945376  2.1415
 0.0978311  2.15276
 0.100928  2.16402
 0.103808  2.1753
 0.106612  2.18657
 0.109471  2.19785
 0.112614  2.20911
 0.116144  2.22036
 0.119821  2.23159
 0.123437  2.24283
 0.126988  2.25408
 0.130522  2.26532
 0.134093  2.27656
 0.137761  2.2878
 0.141585  2.29903
 0.145596  2.31025
 0.149758  2.32146
 0.154043  2.33266
 0.158505  2.34385
 0.163215  2.35503
 0.168125  2.36619
 0.173123  2.37734
 0.178214  2.38849
 0.183481  2.39963
 0.188932  2.41075
 0.194903  2.42182
 0.201405  2.43286
 0.208237  2.44385
 0.215189  2.45484
 0.222249  2.46581
 0.229545  2.47677
 0.237167  2.48768
 0.244873  2.49859
 0.253138  2.50942
 0.261709  2.52023
 0.270298  2.53103
 0.27922  2.54178
 0.288177  2.55253
 0.296691  2.56334
 0.305072  2.57417
 0.313379  2.585
 0.321395  2.59587
 0.329772  2.6067
 0.338424  2.61749
 0.346722  2.62832
 0.354822  2.63918
 0.362776  2.65006
 0.370451  2.66097
 0.377817  2.67191
 0.384895  2.68289
 0.391681  2.69389
 0.39853  2.70488
 0.405648  2.71585
 0.41273  2.72683
 0.419581  2.73782
 0.426004  2.74886
 0.432392  2.7599
 0.438892  2.77093
 0.445108  2.78199
 0.451071  2.79307
 0.457013  2.80415
 0.462973  2.81523
 0.468882  2.82631
 0.474836  2.83739
 0.480698  2.84848
 0.486322  2.85958
 0.491825  2.8707
 0.497316  2.88182
 0.502825  2.89294
 0.508409  2.90405
 0.513899  2.91516
 0.519235  2.92629
 0.524606  2.93742
 0.529981  2.94855
 0.535263  2.95968
 0.54043  2.97082
 0.545496  2.98197
 0.550527  2.99313
 0.555546  3.00428
 0.560533  3.01544
 0.565561  3.02659
 0.5706  3.03774
 0.575596  3.0489
 0.580478  3.06006
 0.58522  3.07123
 0.589938  3.08241
 0.594728  3.09358
 0.599495  3.10475
 0.604237  3.11592
 0.60893  3.1271
 0.613497  3.13828
 0.617981  3.14947
 0.622482  3.16066
 0.627  3.17185
 0.631451  3.18304
 0.635786  3.19424
 0.640023  3.20544
 0.644341  3.21664
 0.64873  3.22784
 0.653086  3.23904
 0.657376  3.25024
 0.661613  3.26144
 0.665806  3.27265
 0.669963  3.28386
 0.674081  3.29507
 0.678111  3.30629
 0.682118  3.31751
 0.686155  3.32873
 0.690163  3.33995
 0.694101  3.35117
 0.69801  3.36239
 0.701942  3.37361
 0.70589  3.38484
 0.709781  3.39606
 0.713554  3.40729
 0.717223  3.41853
 0.720833  3.42977
 0.724418  3.44101
 0.727984  3.45226
 0.731537  3.4635
 0.735076  3.47474
 0.738595  3.48599
 0.742081  3.49723
 0.745452  3.50849
 0.748743  3.51974
 0.752073  3.531
 0.755461  3.54225
 0.758849  3.5535
 0.762184  3.56475
 0.765473  3.57601
 0.768762  3.58726
 0.772085  3.59852
 0.775332  3.60978
 0.77848  3.62104
 0.781586  3.6323
 0.78468  3.64357
 0.787767  3.65483
 0.79085  3.6661
 0.793918  3.67737
 0.796936  3.68863
 0.799863  3.69991
 0.802732  3.71118
 0.8056  3.72245
 0.808456  3.73373
 0.811291  3.745
 0.814105  3.75628
 0.816919  3.76756
 0.819752  3.77883
 0.822608  3.79011
 0.825419  3.80139
 0.82813  3.81267
 0.830786  3.82395
 0.833428  3.83523
 0.836066  3.84652
 0.838702  3.8578
 0.84134  3.86908
 0.843965  3.88037
 0.846542  3.89165
 0.849037  3.90294
 0.851483  3.91423
 0.853945  3.92552
 0.856418  3.93681
 0.858896  3.9481
 0.86137  3.95939
 0.863827  3.97068
 0.866244  3.98197
 0.868602  3.99326
 0.870887  4.00456
 0.873168  4.01585
 0.875461  4.02715
 0.877761  4.03845
 0.880065  4.04974
 0.882365  4.06104
 0.884643  4.07233
 0.886877  4.08363
 0.889046  4.09493
 0.891145  4.10623
 0.893248  4.11753
 0.895363  4.12883
 0.897489  4.14013
 0.899624  4.15143
 0.901766  4.16273
 0.903897  4.17403
 0.905997  4.18534
 0.908042  4.19664
 0.910018  4.20794
 0.911974  4.21925
 0.91393  4.23056
 0.915891  4.24186
 0.917861  4.25317
 0.919844  4.26447
 0.921838  4.27578
 0.923815  4.28708
 0.925741  4.29839
 0.927587  4.3097
 0.929387  4.32101
 0.93119  4.33231
 0.933014  4.34362
 0.934849  4.35493
 0.936689  4.36624
 0.938525  4.37755
 0.940349  4.38886
 0.942144  4.40017
 0.943877  4.41148
 0.94556  4.42279
 0.947216  4.43411
 0.948869  4.44542
 0.95054  4.45673
 0.952234  4.46805
 0.953929  4.47936
 0.955599  4.49067
 0.957219  4.50198
 0.95878  4.5133
 0.960313  4.52462
 0.961847  4.53593
 0.963386  4.54725
 0.964931  4.55856
 0.966486  4.56988
 0.968052  4.58119
 0.96963  4.59251
 0.97121  4.60382
 0.972736  4.61514
 0.974214  4.62646
 0.97566  4.63778
 0.97709  4.64909
 0.978519  4.66041
 0.979964  4.67173
 0.981432  4.68305
 0.982897  4.69437
 0.984326  4.70568
 0.985711  4.717
 0.987068  4.72832
 0.988417  4.73964
 0.989777  4.75096
 0.991161  4.76228
 0.992557  4.7736
 0.993941  4.78492
 0.995287  4.79624
 0.996575  4.80756
 0.997823  4.81888
 0.999074  4.8302
 1.00037  4.84152
 1.00173  4.85284
 1.00315  4.86416
 1.0046  4.87548
 1.00606  4.8868
 1.00751  4.89811
 1.00894  4.90943
 1.01033  4.92075
 1.0117  4.93207
 1.01303  4.94339
 1.01434  4.95471
 1.01561  4.96603
 1.01685  4.97735
 1.01806  4.98868
 1.01925  5
