# XXZ chain, with true anisotropy being Delta+g
# L = 16, full Hilbert space, J = 1, Delta = 0.5, g = 0.10
# Normalized cumlative spectral function for the O3 operator, with frequency scaled by g
# omega/g, R_3(omega)

2.046617999391989962e+00 1.000000000000000000e+00
1.969311337907422743e+00 1.000000000000000000e+00
1.894924771873821578e+00 1.000000000000000000e+00
1.823348000868441288e+00 1.000000000000000000e+00
1.754474890833459755e+00 1.000000000000000000e+00
1.688203316700363388e+00 1.000000000000000000e+00
1.624435010958866998e+00 1.000000000000000000e+00
1.563075417945816614e+00 1.000000000000000000e+00
1.504033553638024934e+00 1.000000000000000000e+00
1.447221870741135064e+00 1.000000000000000000e+00
1.392556128874463450e+00 1.000000000000000000e+00
1.339955269659339088e+00 1.000000000000000000e+00
1.289341296525715608e+00 1.000000000000000000e+00
1.240639159058832375e+00 1.000000000000000000e+00
1.193776641714436870e+00 1.000000000000000000e+00
1.148684256737554144e+00 1.000000000000000000e+00
1.105295141126022118e+00 1.000000000000000000e+00
1.063544957486011189e+00 1.000000000000000000e+00
1.023371798632519702e+00 1.000000000000000000e+00
9.847160957933773773e-01 1.000000000000000000e+00
9.475205302806547492e-01 1.000000000000000000e+00
9.117299484984922042e-01 9.927776990511287813e-01
8.772912801613365064e-01 9.808074232252030900e-01
8.441534596012983949e-01 9.683696710686319209e-01
8.122673500479719033e-01 9.541291274332837080e-01
7.815856707684091242e-01 9.403570079416357919e-01
7.520629269592414845e-01 9.225854683031181613e-01
7.236553422869657082e-01 9.055984956333557045e-01
6.963207939763882415e-01 8.872055553393449756e-01
6.700187503509590359e-01 8.723775864855721762e-01
6.447102107323868792e-01 8.544799763412412874e-01
6.203576476104274429e-01 8.344921922829787730e-01
5.969249509970734335e-01 8.150299329277302940e-01
5.743773748826587200e-01 7.968180998972020923e-01
5.526814857144602966e-01 7.759217374274984813e-01
5.318051128214201784e-01 7.537134378438211657e-01
5.117173007114604877e-01 7.330753125303366424e-01
4.923882631706741342e-01 7.138380956093520746e-01
4.737893390963143769e-01 6.929037673269873299e-01
4.558929499981063671e-01 6.729971790272074594e-01
4.386725591048498685e-01 6.503871874239599560e-01
4.221026320156902600e-01 6.319403991113055064e-01
4.061585988376979484e-01 6.133765806001943988e-01
3.908168177536268106e-01 5.958071711945713833e-01
3.760545399658172250e-01 5.773678596922353634e-01
3.618498759642750362e-01 5.594641007085509044e-01
3.481817630688966436e-01 5.418197959290023125e-01
3.350299341977233114e-01 5.241505776426567120e-01
3.223748878149030328e-01 5.117078710594943347e-01
3.101978590138096958e-01 4.988693715898119274e-01
2.984807916924327453e-01 4.850864895929025145e-01
2.872063117797828413e-01 4.720850003534113326e-01
2.763577014736159909e-01 4.570855179069266971e-01
2.659188744512693825e-01 4.447077787589318598e-01
2.558743520168589303e-01 4.315556853425374095e-01
2.462092401494625771e-01 4.149563791321555506e-01
2.369092074182634622e-01 3.990170305660724059e-01
2.279604637318979887e-01 3.821306001784902651e-01
2.193497398905060181e-01 3.676931341040760026e-01
2.110642679101554509e-01 3.519726111748501807e-01
2.030917620904736931e-01 3.375362226757549489e-01
1.954204007974053303e-01 3.205353845002127944e-01
1.880388089340916669e-01 3.083321904800597202e-01
1.809360410738716229e-01 2.934905909620535436e-01
1.741015652304017114e-01 2.835727993516745649e-01
1.675252472408215454e-01 2.705701158165094156e-01
1.611973357388158667e-01 2.592589822335149008e-01
1.551084476952840630e-01 2.487324473673273306e-01
1.492495545051830408e-01 2.390276087937274752e-01
1.436119685999078799e-01 2.292409830217356781e-01
1.381873305653631978e-01 2.188703236881108793e-01
1.329675967466212305e-01 2.074492136535523168e-01
1.279450273207873301e-01 1.980935353066832216e-01
1.231121748203890809e-01 1.888973620692475375e-01
1.184618730902683575e-01 1.802123806627363711e-01
1.139872266616052399e-01 1.723208487611364303e-01
1.096816005273137939e-01 1.640524271854489069e-01
1.055386103036523998e-01 1.547146204692429472e-01
1.015521127634568116e-01 1.477910175344328836e-01
9.771619672696181536e-02 1.421979109563066834e-01
9.402517429670131932e-02 1.366498231059513346e-01
9.047357242349302053e-02 1.310922529673840264e-01
8.705612479099865408e-02 1.241776397909273855e-01
8.376776400682924006e-02 1.173803089518801468e-01
8.060361408861344001e-02 1.119321759189815524e-01
7.755898323389008586e-02 1.060261320427383636e-01
7.462935686310137595e-02 1.011145646627784195e-01
7.181039092537355728e-02 9.732005535106245941e-02
6.909790545715645271e-02 9.428877582575279082e-02
6.648787838417269391e-02 8.867725461443637380e-02
6.397643955748430478e-02 8.567176972060271123e-02
6.155986501483513840e-02 8.172761534154233953e-02
5.923457145875805907e-02 7.781644638941545566e-02
5.699711094326075089e-02 7.436505788365171954e-02
5.484416576121019932e-02 7.079366001457670921e-02
5.277254352483537470e-02 6.804846307919587556e-02
5.077917243205402886e-02 6.500203759632747214e-02
4.886109671160326212e-02 6.263762142459201876e-02
4.701547224022133847e-02 6.033379573674934465e-02
4.523956232538053207e-02 5.829763790031437798e-02
4.353073364731891576e-02 5.621154983585940207e-02
4.188645235435271147e-02 5.420292779208989165e-02
4.030428030568054820e-02 5.199864227054928900e-02
3.878187145610723086e-02 5.088070187661032640e-02
3.731696837732755706e-02 4.886554408932898552e-02
3.590739891061055233e-02 4.691357312952207370e-02
3.455107294592221073e-02 4.558413829479737722e-02
3.324597932270941664e-02 4.298483760760098138e-02
3.199018284775066723e-02 4.074282010018739908e-02
3.078182142565079674e-02 3.951649011464128392e-02
2.961910329772556028e-02 3.819138696759594859e-02
2.850030438518108555e-02 3.743202924217417515e-02
2.742376573264952364e-02 3.593248455655866092e-02
2.638789104828934487e-02 3.394526174723865031e-02
2.539114433680346797e-02 3.345202420745845701e-02
2.443204762186488785e-02 3.199400476714867742e-02
2.350917875457286463e-02 3.132613846545022340e-02
2.262116930469026607e-02 3.048099849276944551e-02
2.176670253153458953e-02 2.967942642764783215e-02
2.094451143151470837e-02 2.861704594974319796e-02
2.015337685941732959e-02 2.776027709732907175e-02
1.939212572065830698e-02 2.628685209425859690e-02
1.865962923181746155e-02 2.458483998258116643e-02
1.795480124687832274e-02 2.401446594895220721e-02
1.727659664669036269e-02 2.305510531124044943e-02
1.662400978926613718e-02 2.228219616859010085e-02
1.599607301861487654e-02 2.178167547629113188e-02
1.539185522990207076e-02 2.075256537860301759e-02
1.481046048880675474e-02 2.007008980749545521e-02
1.425102670302999183e-02 1.952705057705037689e-02
1.371272434398400700e-02 1.858174091172712719e-02
1.319475521676707203e-02 1.810882730979945787e-02
1.269635127659973946e-02 1.681824595364888111e-02
1.221677348996793103e-02 1.566993126788974663e-02
1.175531073878369887e-02 1.541645453539987158e-02
1.131127876593921409e-02 1.428022312785690896e-02
1.088401916069006541e-02 1.351661019645598351e-02
1.047289838236358482e-02 1.312980658436696708e-02
1.007730682094461726e-02 1.259849937134487757e-02
9.696657893145520235e-03 1.205277329948945854e-02
9.330387172620357994e-03 1.177529884350854948e-02
8.977951553033332310e-03 1.129948767056176973e-02
8.638828442740453112e-03 1.117204481308273385e-02
8.312514989890631284e-03 1.060129424330297568e-02
7.998527336796706910e-03 1.016546504974078814e-02
7.696399902471165108e-03 1.012622857054031565e-02
7.405684692262441866e-03 9.701073577715697491e-03
7.125950633568409361e-03 9.333104334449723177e-03
6.856782936641737762e-03 8.906149825831381067e-03
6.597782479539546913e-03 8.500084905573045135e-03
6.348565216305223323e-03 8.256395994624209089e-03
6.108761607505040075e-03 8.254313129973947505e-03
5.878016072274911547e-03 7.435849210395604168e-03
5.655986461065013425e-03 7.279512471845348519e-03
5.442343548300272033e-03 6.688187933133962412e-03
5.236770544204655264e-03 6.401069869863388467e-03
5.038962625065149942e-03 6.302475092745145856e-03
4.848626481239078079e-03 6.074023285463800610e-03
4.665479882234476600e-03 5.437985216728551119e-03
4.489251258218606745e-03 5.068328183087549010e-03
4.319679297334173655e-03 4.784088519249074870e-03
4.156512558225988231e-03 4.783715868825228791e-03
3.999509097203669643e-03 4.747669281157913292e-03
3.848436109487432793e-03 4.683913386932154338e-03
3.703069584005140927e-03 4.515451678618341395e-03
3.563193971228583758e-03 4.176071230337368920e-03
3.428601863556590256e-03 4.035686141645247749e-03
3.299093687770942099e-03 3.573519605789346899e-03
3.174477409109193338e-03 3.390121496998927536e-03
3.054568246515431459e-03 3.390006212561245177e-03
2.939188398646889935e-03 3.366151060699038629e-03
2.828166780230035107e-03 3.366102339668323139e-03
2.721338768375308487e-03 3.238389697199685075e-03
2.618545958474232608e-03 3.154657545516342983e-03
2.519635929317018842e-03 3.154235943182783202e-03
2.424462017082330834e-03 3.054472863913129319e-03
2.332883097864158189e-03 2.653620935946756493e-03
2.244763378413223813e-03 2.653586495248812325e-03
2.159972194782716886e-03 2.652658683924294814e-03
2.078383818579759151e-03 2.270589352657355082e-03
1.999877270535287046e-03 2.270483605789784878e-03
1.924336141115980245e-03 2.270263299145740526e-03
1.851648417912154111e-03 2.270115334065941209e-03
1.781706319545732628e-03 2.214485242193663973e-03
1.714406135851972166e-03 2.214425210496967847e-03
1.649648074098020558e-03 2.214391408553539106e-03
1.587336111010208576e-03 1.950594084356240465e-03
1.527377850390715429e-03 1.950539879679926390e-03
1.469684386112447318e-03 1.931335737810714170e-03
1.414170170289023951e-03 1.931145122404492355e-03
1.360752886424333036e-03 1.931134167763425913e-03
1.309353327353612179e-03 1.930754976659369068e-03
1.259895277795028325e-03 1.930649455450445364e-03
1.212305401337652891e-03 1.930253213541607404e-03
1.166513131698196067e-03 1.930216854748779357e-03
1.122450568085308058e-03 1.861257209327889283e-03
1.080052374516253912e-03 1.861256779655187567e-03
1.039255682936713037e-03 1.835195788322350292e-03
1.000000000000000021e-03 1.835174327623092681e-03
1.000000000000000048e-04 7.888134972595295575e-05
1.000000000000000082e-05 2.703863532917398208e-10
9.999999999999999547e-07 3.500499029004467081e-22
9.999999999999999547e-08 3.500497573325101023e-22
