# XXZ spin model with modualted magnetic field S=1/2
# L=18, number_of_particles=8, J=1.0, Delta=1.0
# level sensitivity parameter R
# Field strength W, level sensitivity parameter R

0.50	22.7561
0.75	15.9544
1.00	12.3526
1.25	9.7652
1.50	7.8418
1.75	6.1586
2.00	4.7895
2.25	3.6395
2.50	2.7180
2.75	1.9061
3.00	1.2402
3.25	0.7859
3.50	0.5004
3.75	0.2911
4.00	0.1799
