# XXZ spin model with modualted magnetic field S=1/2
# L=24, number_of_particles=12, J=1.0, Delta=0.5, Disorder=1.0
# Dynamical diffusion D(ω) for QP (k=(3-sqrt(5))/2)
# Frequency ω, Dynamical diffusion D(ω)

0.000000	0.7313396
0.000200	0.7313692
0.000400	0.7314536
0.000600	0.7315808
0.000800	0.7317332
0.001000	0.7318928
0.001200	0.7320420
0.001400	0.7321656
0.001600	0.7322500
0.001800	0.7322776
0.002000	0.7322252
0.002200	0.7320692
0.002400	0.7317928
0.002600	0.7313972
0.002800	0.7309052
0.003000	0.7303600
0.003200	0.7298128
0.003400	0.7293132
0.003600	0.7288940
0.003800	0.7285676
0.004000	0.7283252
0.004200	0.7281400
0.004400	0.7279784
0.004600	0.7278064
0.004800	0.7275972
0.005000	0.7273340
0.005200	0.7270120
0.005400	0.7266396
0.005600	0.7262408
0.005800	0.7258508
0.006000	0.7255052
0.006200	0.7252268
0.006400	0.7250204
0.006600	0.7248724
0.006800	0.7247572
0.007000	0.7246424
0.007200	0.7244904
0.007400	0.7242644
0.007600	0.7239352
0.007800	0.7234900
0.008000	0.7229360
0.008200	0.7222936
0.008400	0.7215936
0.008600	0.7208708
0.008800	0.7201564
0.009000	0.7194760
0.009200	0.7188400
0.009400	0.7182436
0.009600	0.7176688
0.009800	0.7170952
0.010000	0.7165156
0.010200	0.7159428
0.010400	0.7154120
0.010600	0.7149668
0.010800	0.7146448
0.011000	0.7144636
0.011200	0.7144212
0.011400	0.7145008
0.011600	0.7146776
0.011800	0.7149176
0.012000	0.7151808
0.012200	0.7154308
0.012400	0.7156480
0.012600	0.7158404
0.012800	0.7160436
0.013000	0.7163076
0.013200	0.7166788
0.013400	0.7171852
0.013600	0.7178284
0.013800	0.7185804
0.014000	0.7193880
0.014200	0.7201816
0.014400	0.7208876
0.014600	0.7214468
0.014800	0.7218292
0.015000	0.7220392
0.015200	0.7221092
0.015400	0.7220836
0.015600	0.7219976
0.015800	0.7218700
0.016000	0.7217072
0.016200	0.7215124
0.016400	0.7212976
0.016600	0.7210880
0.016800	0.7209188
0.017000	0.7208260
0.017200	0.7208356
0.017400	0.7209560
0.017600	0.7211752
0.017800	0.7214632
0.018000	0.7217840
0.018200	0.7221048
0.018400	0.7224080
0.018600	0.7226904
0.018800	0.7229624
0.019000	0.7232452
0.019200	0.7235648
0.019400	0.7239476
0.019600	0.7244060
0.019800	0.7249312
0.020000	0.7254924
0.020200	0.7260460
0.020400	0.7265512
0.020600	0.7269784
0.020800	0.7273144
0.021000	0.7275612
0.021200	0.7277320
0.021400	0.7278440
0.021600	0.7279080
0.021800	0.7279208
0.022000	0.7278680
0.022200	0.7277316
0.022400	0.7275048
0.022600	0.7272056
0.022800	0.7268720
0.023000	0.7265548
0.023200	0.7263016
0.023400	0.7261456
0.023600	0.7261040
0.023800	0.7261780
0.024000	0.7263608
0.024200	0.7266424
0.024400	0.7270164
0.024600	0.7274808
0.024800	0.7280312
0.025000	0.7286508
0.025200	0.7293032
0.025400	0.7299348
0.025600	0.7304904
0.025800	0.7309348
0.026000	0.7312632
0.026200	0.7315016
0.026400	0.7316900
0.026600	0.7318640
0.026800	0.7320476
0.027000	0.7322556
0.027200	0.7324980
0.027400	0.7327860
0.027600	0.7331272
0.027800	0.7335240
0.028000	0.7339700
0.028200	0.7344468
0.028400	0.7349268
0.028600	0.7353760
0.028800	0.7357612
0.029000	0.7360516
0.029200	0.7362204
0.029400	0.7362448
0.029600	0.7361080
0.029800	0.7358076
0.030000	0.7353616
0.030200	0.7348084
0.030400	0.7341980
0.030600	0.7335812
0.030800	0.7330036
0.031000	0.7325032
0.031200	0.7321112
0.031400	0.7318528
0.031600	0.7317472
0.031800	0.7318044
0.032000	0.7320196
0.032200	0.7323708
0.032400	0.7328200
0.032600	0.7333196
0.032800	0.7338268
0.033000	0.7343104
0.033200	0.7347552
0.033400	0.7351632
0.033600	0.7355464
0.033800	0.7359212
0.034000	0.7362992
0.034200	0.7366828
0.034400	0.7370648
0.034600	0.7374328
0.034800	0.7377772
0.035000	0.7380904
0.035200	0.7383704
0.035400	0.7386200
0.035600	0.7388484
0.035800	0.7390744
0.036000	0.7393248
0.036200	0.7396248
0.036400	0.7399920
0.036600	0.7404336
0.036800	0.7409432
0.037000	0.7415024
0.037200	0.7420800
0.037400	0.7426348
0.037600	0.7431204
0.037800	0.7435008
0.038000	0.7437608
0.038200	0.7439080
0.038400	0.7439696
0.038600	0.7439768
0.038800	0.7439504
0.039000	0.7438920
0.039200	0.7437920
0.039400	0.7436380
0.039600	0.7434320
0.039800	0.7431932
0.040000	0.7429552
0.040200	0.7427496
0.040400	0.7425884
0.040600	0.7424560
0.040800	0.7423180
0.041000	0.7421376
0.041200	0.7418960
0.041400	0.7415980
0.041600	0.7412656
0.041800	0.7409248
0.042000	0.7405896
0.042200	0.7402584
0.042400	0.7399188
0.042600	0.7395596
0.042800	0.7391844
0.043000	0.7388160
0.043200	0.7384940
0.043400	0.7382636
0.043600	0.7381656
0.043800	0.7382248
0.044000	0.7384412
0.044200	0.7387888
0.044400	0.7392200
0.044600	0.7396768
0.044800	0.7401096
0.045000	0.7404872
0.045200	0.7407992
0.045400	0.7410508
0.045600	0.7412564
0.045800	0.7414320
0.046000	0.7415964
0.046200	0.7417740
0.046400	0.7419920
0.046600	0.7422772
0.046800	0.7426520
0.047000	0.7431308
0.047200	0.7437148
0.047400	0.7443916
0.047600	0.7451364
0.047800	0.7459140
0.048000	0.7466872
0.048200	0.7474212
0.048400	0.7480896
0.048600	0.7486724
0.048800	0.7491552
0.049000	0.7495228
0.049200	0.7497576
0.049400	0.7498464
0.049600	0.7497860
0.049800	0.7495896
0.050000	0.7492892
0.050200	0.7489316
0.050400	0.7485652
0.050600	0.7482304
0.050800	0.7479540
0.051000	0.7477456
0.051200	0.7476068
0.051400	0.7475348
0.051600	0.7475252
0.051800	0.7475688
0.052000	0.7476504
0.052200	0.7477484
0.052400	0.7478360
0.052600	0.7478860
0.052800	0.7478724
0.053000	0.7477756
0.053200	0.7475952
0.053400	0.7473604
0.053600	0.7471256
0.053800	0.7469556
0.054000	0.7469020
0.054200	0.7469864
0.054400	0.7471992
0.054600	0.7475112
0.054800	0.7478860
0.055000	0.7482896
0.055200	0.7486952
0.055400	0.7490824
0.055600	0.7494396
0.055800	0.7497712
0.056000	0.7500992
0.056200	0.7504584
0.056400	0.7508852
0.056600	0.7514056
0.056800	0.7520236
0.057000	0.7527196
0.057200	0.7534584
0.057400	0.7541936
0.057600	0.7548780
0.057800	0.7554712
0.058000	0.7559464
0.058200	0.7562948
0.058400	0.7565296
0.058600	0.7566812
0.058800	0.7567860
0.059000	0.7568824
0.059200	0.7570028
0.059400	0.7571704
0.059600	0.7574024
0.059800	0.7577068
0.060000	0.7580832
0.060200	0.7585252
0.060400	0.7590264
0.060600	0.7595804
0.060800	0.7601836
0.061000	0.7608344
0.061200	0.7615296
0.061400	0.7622624
0.061600	0.7630192
0.061800	0.7637760
0.062000	0.7644988
0.062200	0.7651480
0.062400	0.7656876
0.062600	0.7660972
0.062800	0.7663836
0.063000	0.7665764
0.063200	0.7667164
0.063400	0.7668384
0.063600	0.7669624
0.063800	0.7670916
0.064000	0.7672180
0.064200	0.7673288
0.064400	0.7674064
0.064600	0.7674304
0.064800	0.7673804
0.065000	0.7672332
0.065200	0.7669688
0.065400	0.7665748
0.065600	0.7660548
0.065800	0.7654312
0.066000	0.7647452
0.066200	0.7640472
0.066400	0.7633832
0.066600	0.7627880
0.066800	0.7622788
0.067000	0.7618588
0.067200	0.7615204
0.067400	0.7612516
0.067600	0.7610392
0.067800	0.7608784
0.068000	0.7607772
0.068200	0.7607520
0.068400	0.7608216
0.068600	0.7609992
0.068800	0.7612872
0.069000	0.7616752
0.069200	0.7621412
0.069400	0.7626508
0.069600	0.7631616
0.069800	0.7636352
0.070000	0.7640412
0.070200	0.7643556
0.070400	0.7645596
0.070600	0.7646404
0.070800	0.7645924
0.071000	0.7644260
0.071200	0.7641724
0.071400	0.7638784
0.071600	0.7635968
0.071800	0.7633772
0.072000	0.7632536
0.072200	0.7632424
0.072400	0.7633428
0.072600	0.7635424
0.072800	0.7638252
0.073000	0.7641748
0.073200	0.7645748
0.073400	0.7650012
0.073600	0.7654184
0.073800	0.7657852
0.074000	0.7660644
0.074200	0.7662380
0.074400	0.7663168
0.074600	0.7663372
0.074800	0.7663448
0.075000	0.7663760
0.075200	0.7664464
0.075400	0.7665480
0.075600	0.7666628
0.075800	0.7667784
0.076000	0.7669012
0.076200	0.7670604
0.076400	0.7673028
0.076600	0.7676736
0.076800	0.7682000
0.077000	0.7688768
0.077200	0.7696592
0.077400	0.7704712
0.077600	0.7712236
0.077800	0.7718380
0.078000	0.7722652
0.078200	0.7724920
0.078400	0.7725308
0.078600	0.7724068
0.078800	0.7721508
0.079000	0.7717964
0.079200	0.7713824
0.079400	0.7709592
0.079600	0.7705892
0.079800	0.7703376
0.080000	0.7702604
0.080200	0.7703920
0.080400	0.7707368
0.080600	0.7712708
0.080800	0.7719552
0.081000	0.7727492
0.081200	0.7736192
0.081400	0.7745440
0.081600	0.7755068
0.081800	0.7764816
0.082000	0.7774264
0.082200	0.7782800
0.082400	0.7789768
0.082600	0.7794652
0.082800	0.7797216
0.083000	0.7797560
0.083200	0.7796040
0.083400	0.7793208
0.083600	0.7789672
0.083800	0.7786032
0.084000	0.7782820
0.084200	0.7780448
0.084400	0.7779160
0.084600	0.7779068
0.084800	0.7780160
0.085000	0.7782364
0.085200	0.7785636
0.085400	0.7789984
0.085600	0.7795488
0.085800	0.7802292
0.086000	0.7810516
0.086200	0.7820124
0.086400	0.7830788
0.086600	0.7841872
0.086800	0.7852492
0.087000	0.7861744
0.087200	0.7868944
0.087400	0.7873788
0.087600	0.7876412
0.087800	0.7877332
0.088000	0.7877280
0.088200	0.7876976
0.088400	0.7876960
0.088600	0.7877496
0.088800	0.7878544
0.089000	0.7879868
0.089200	0.7881208
0.089400	0.7882424
0.089600	0.7883632
0.089800	0.7885180
0.090000	0.7887564
0.090200	0.7891256
0.090400	0.7896564
0.090600	0.7903500
0.090800	0.7911760
0.091000	0.7920820
0.091200	0.7930036
0.091400	0.7938784
0.091600	0.7946544
0.091800	0.7952896
0.092000	0.7957500
0.092200	0.7960164
0.092400	0.7960948
0.092600	0.7960200
0.092800	0.7958560
0.093000	0.7956784
0.093200	0.7955472
0.093400	0.7954876
0.093600	0.7954860
0.093800	0.7954996
0.094000	0.7954768
0.094200	0.7953772
0.094400	0.7951824
0.094600	0.7948964
0.094800	0.7945440
0.095000	0.7941616
0.095200	0.7937892
0.095400	0.7934656
0.095600	0.7932176
0.095800	0.7930520
0.096000	0.7929532
0.096200	0.7928880
0.096400	0.7928188
0.096600	0.7927144
0.096800	0.7925616
0.097000	0.7923616
0.097200	0.7921268
0.097400	0.7918788
0.097600	0.7916428
0.097800	0.7914424
0.098000	0.7912928
0.098200	0.7911940
0.098400	0.7911328
0.098600	0.7910928
0.098800	0.7910628
0.099000	0.7910348
0.099200	0.7910064
0.099400	0.7909812
0.099600	0.7909720
0.099800	0.7910048
0.100000	0.7911172
0.100200	0.7913456
0.100400	0.7917132
0.100600	0.7922200
0.100800	0.7928384
0.101000	0.7935232
0.101200	0.7942260
0.101400	0.7949076
0.101600	0.7955424
0.101800	0.7961164
0.102000	0.7966248
0.102200	0.7970684
0.102400	0.7974528
0.102600	0.7977876
0.102800	0.7980820
0.103000	0.7983448
0.103200	0.7985896
0.103400	0.7988292
0.103600	0.7990768
0.103800	0.7993412
0.104000	0.7996188
0.104200	0.7998916
0.104400	0.8001340
0.104600	0.8003244
0.104800	0.8004532
0.105000	0.8005304
0.105200	0.8005796
0.105400	0.8006284
0.105600	0.8007020
0.105800	0.8008232
0.106000	0.8010092
0.106200	0.8012748
0.106400	0.8016284
0.106600	0.8020664
0.106800	0.8025692
0.107000	0.8031012
0.107200	0.8036144
0.107400	0.8040544
0.107600	0.8043676
0.107800	0.8045104
0.108000	0.8044536
0.108200	0.8041876
0.108400	0.8037196
0.108600	0.8030672
0.108800	0.8022548
0.109000	0.8013148
0.109200	0.8002920
0.109400	0.7992476
0.109600	0.7982572
0.109800	0.7973932
0.110000	0.7967080
0.110200	0.7962272
0.110400	0.7959484
0.110600	0.7958552
0.110800	0.7959296
0.111000	0.7961580
0.111200	0.7965292
0.111400	0.7970328
0.111600	0.7976528
0.111800	0.7983628
0.112000	0.7991244
0.112200	0.7998940
0.112400	0.8006240
0.112600	0.8012732
0.112800	0.8018072
0.113000	0.8021960
0.113200	0.8024164
0.113400	0.8024608
0.113600	0.8023464
0.113800	0.8021204
0.114000	0.8018500
0.114200	0.8016020
0.114400	0.8014224
0.114600	0.8013288
0.114800	0.8013168
0.115000	0.8013668
0.115200	0.8014564
0.115400	0.8015640
0.115600	0.8016652
0.115800	0.8017376
0.116000	0.8017668
0.116200	0.8017500
0.116400	0.8016996
0.116600	0.8016364
0.116800	0.8015796
0.117000	0.8015376
0.117200	0.8015116
0.117400	0.8014996
0.117600	0.8015052
0.117800	0.8015412
0.118000	0.8016264
0.118200	0.8017808
0.118400	0.8020188
0.118600	0.8023460
0.118800	0.8027556
0.119000	0.8032300
0.119200	0.8037488
0.119400	0.8042952
0.119600	0.8048640
0.119800	0.8054620
0.120000	0.8061028
0.120200	0.8067956
0.120400	0.8075388
0.120600	0.8083108
0.120800	0.8090732
0.121000	0.8097860
0.121200	0.8104232
0.121400	0.8109812
0.121600	0.8114808
0.121800	0.8119540
0.122000	0.8124268
0.122200	0.8129052
0.122400	0.8133692
0.122600	0.8137796
0.122800	0.8140916
0.123000	0.8142772
0.123200	0.8143408
0.123400	0.8143192
0.123600	0.8142740
0.123800	0.8142684
0.124000	0.8143492
0.124200	0.8145408
0.124400	0.8148456
0.124600	0.8152512
0.124800	0.8157356
0.125000	0.8162724
0.125200	0.8168320
0.125400	0.8173832
0.125600	0.8178968
0.125800	0.8183424
0.126000	0.8186936
0.126200	0.8189260
0.126400	0.8190216
0.126600	0.8189728
0.126800	0.8187860
0.127000	0.8184848
0.127200	0.8181008
0.127400	0.8176728
0.127600	0.8172400
0.127800	0.8168428
0.128000	0.8165204
0.128200	0.8163072
0.128400	0.8162248
0.128600	0.8162832
0.128800	0.8164828
0.129000	0.8168196
0.129200	0.8172876
0.129400	0.8178792
0.129600	0.8185832
0.129800	0.8193816
0.130000	0.8202532
0.130200	0.8211712
0.130400	0.8221060
0.130600	0.8230268
0.130800	0.8239044
0.131000	0.8247112
0.131200	0.8254212
0.131400	0.8260176
0.131600	0.8264924
0.131800	0.8268536
0.132000	0.8271208
0.132200	0.8273204
0.132400	0.8274776
0.132600	0.8276112
0.132800	0.8277252
0.133000	0.8278044
0.133200	0.8278192
0.133400	0.8277340
0.133600	0.8275200
0.133800	0.8271660
0.134000	0.8266852
0.134200	0.8261116
0.134400	0.8254916
0.134600	0.8248756
0.134800	0.8243096
0.135000	0.8238336
0.135200	0.8234804
0.135400	0.8232736
0.135600	0.8232252
0.135800	0.8233320
0.136000	0.8235748
0.136200	0.8239200
0.136400	0.8243248
0.136600	0.8247460
0.136800	0.8251488
0.137000	0.8255056
0.137200	0.8257916
0.137400	0.8259764
0.137600	0.8260268
0.137800	0.8259168
0.138000	0.8256376
0.138200	0.8252084
0.138400	0.8246720
0.138600	0.8240812
0.138800	0.8234812
0.139000	0.8229020
0.139200	0.8223552
0.139400	0.8218404
0.139600	0.8213508
0.139800	0.8208784
0.140000	0.8204116
0.140200	0.8199432
0.140400	0.8194704
0.140600	0.8190036
0.140800	0.8185656
0.141000	0.8181908
0.141200	0.8179108
0.141400	0.8177464
0.141600	0.8176984
0.141800	0.8177504
0.142000	0.8178780
0.142200	0.8180612
0.142400	0.8182936
0.142600	0.8185784
0.142800	0.8189240
0.143000	0.8193336
0.143200	0.8198060
0.143400	0.8203356
0.143600	0.8209176
0.143800	0.8215408
0.144000	0.8221820
0.144200	0.8228016
0.144400	0.8233484
0.144600	0.8237768
0.144800	0.8240624
0.145000	0.8242096
0.145200	0.8242492
0.145400	0.8242296
0.145600	0.8242024
0.145800	0.8242124
0.146000	0.8242904
0.146200	0.8244476
0.146400	0.8246784
0.146600	0.8249628
0.146800	0.8252676
0.147000	0.8255540
0.147200	0.8257864
0.147400	0.8259388
0.147600	0.8259996
0.147800	0.8259696
0.148000	0.8258640
0.148200	0.8257072
0.148400	0.8255328
0.148600	0.8253780
0.148800	0.8252812
0.149000	0.8252800
0.149200	0.8254092
0.149400	0.8257008
0.149600	0.8261780
0.149800	0.8268460
0.150000	0.8276848
0.150200	0.8286400
0.150400	0.8296308
0.150600	0.8305644
0.150800	0.8313576
0.151000	0.8319560
0.151200	0.8323440
0.151400	0.8325404
0.151600	0.8325836
0.151800	0.8325144
0.152000	0.8323712
0.152200	0.8321924
0.152400	0.8320212
0.152600	0.8319044
0.152800	0.8318764
0.153000	0.8319476
0.153200	0.8321004
0.153400	0.8322948
0.153600	0.8324904
0.153800	0.8326592
0.154000	0.8327920
0.154200	0.8328924
0.154400	0.8329640
0.154600	0.8329988
0.154800	0.8329808
0.155000	0.8328964
0.155200	0.8327468
0.155400	0.8325532
0.155600	0.8323496
0.155800	0.8321748
0.156000	0.8320632
0.156200	0.8320368
0.156400	0.8320964
0.156600	0.8322180
0.156800	0.8323588
0.157000	0.8324704
0.157200	0.8325172
0.157400	0.8324884
0.157600	0.8323944
0.157800	0.8322580
0.158000	0.8321004
0.158200	0.8319328
0.158400	0.8317536
0.158600	0.8315564
0.158800	0.8313360
0.159000	0.8310992
0.159200	0.8308664
0.159400	0.8306704
0.159600	0.8305460
0.159800	0.8305196
0.160000	0.8306012
0.160200	0.8307768
0.160400	0.8310096
0.160600	0.8312460
0.160800	0.8314348
0.161000	0.8315444
0.161200	0.8315740
0.161400	0.8315492
0.161600	0.8315104
0.161800	0.8314964
0.162000	0.8315348
0.162200	0.8316368
0.162400	0.8318028
0.162600	0.8320316
0.162800	0.8323236
0.163000	0.8326784
0.163200	0.8330860
0.163400	0.8335224
0.163600	0.8339540
0.163800	0.8343416
0.164000	0.8346464
0.164200	0.8348352
0.164400	0.8348832
0.164600	0.8347828
0.164800	0.8345428
0.165000	0.8341896
0.165200	0.8337604
0.165400	0.8332888
0.165600	0.8328020
0.165800	0.8323224
0.166000	0.8318724
0.166200	0.8314792
0.166400	0.8311692
0.166600	0.8309632
0.166800	0.8308716
0.167000	0.8308940
0.167200	0.8310208
0.167400	0.8312320
0.167600	0.8314996
0.167800	0.8317836
0.168000	0.8320340
0.168200	0.8321976
0.168400	0.8322336
0.168600	0.8321284
0.168800	0.8318988
0.169000	0.8315860
0.169200	0.8312376
0.169400	0.8308964
0.169600	0.8305984
0.169800	0.8303692
0.170000	0.8302280
0.170200	0.8301844
0.170400	0.8302328
0.170600	0.8303488
0.170800	0.8304920
0.171000	0.8306188
0.171200	0.8306936
0.171400	0.8306992
0.171600	0.8306368
0.171800	0.8305200
0.172000	0.8303684
0.172200	0.8302044
0.172400	0.8300520
0.172600	0.8299364
0.172800	0.8298832
0.173000	0.8299136
0.173200	0.8300428
0.173400	0.8302804
0.173600	0.8306280
0.173800	0.8310776
0.174000	0.8316052
0.174200	0.8321724
0.174400	0.8327324
0.174600	0.8332428
0.174800	0.8336800
0.175000	0.8340408
0.175200	0.8343408
0.175400	0.8346060
0.175600	0.8348652
0.175800	0.8351428
0.176000	0.8354572
0.176200	0.8358188
0.176400	0.8362328
0.176600	0.8367012
0.176800	0.8372244
0.177000	0.8377988
0.177200	0.8384144
0.177400	0.8390468
0.177600	0.8396552
0.177800	0.8401852
0.178000	0.8405840
0.178200	0.8408168
0.178400	0.8408844
0.178600	0.8408196
0.178800	0.8406724
0.179000	0.8404888
0.179200	0.8402932
0.179400	0.8400856
0.179600	0.8398496
0.179800	0.8395720
0.180000	0.8392556
0.180200	0.8389276
0.180400	0.8386304
0.180600	0.8384080
0.180800	0.8382840
0.181000	0.8382556
0.181200	0.8382956
0.181400	0.8383668
0.181600	0.8384336
0.181800	0.8384740
0.182000	0.8384792
0.182200	0.8384528
0.182400	0.8384096
0.182600	0.8383724
0.182800	0.8383644
0.183000	0.8384064
0.183200	0.8385084
0.183400	0.8386716
0.183600	0.8388848
0.183800	0.8391264
0.184000	0.8393644
0.184200	0.8395552
0.184400	0.8396528
0.184600	0.8396124
0.184800	0.8394052
0.185000	0.8390268
0.185200	0.8384968
0.185400	0.8378536
0.185600	0.8371440
0.185800	0.8364144
0.186000	0.8357120
0.186200	0.8350840
0.186400	0.8345772
0.186600	0.8342360
0.186800	0.8340944
0.187000	0.8341684
0.187200	0.8344472
0.187400	0.8348928
0.187600	0.8354460
0.187800	0.8360332
0.188000	0.8365772
0.188200	0.8370060
0.188400	0.8372608
0.188600	0.8373068
0.188800	0.8371400
0.189000	0.8367840
0.189200	0.8362828
0.189400	0.8356868
0.189600	0.8350384
0.189800	0.8343644
0.190000	0.8336816
0.190200	0.8330016
0.190400	0.8323404
0.190600	0.8317204
0.190800	0.8311656
0.191000	0.8306980
0.191200	0.8303336
0.191400	0.8300860
0.191600	0.8299688
0.191800	0.8299960
0.192000	0.8301800
0.192200	0.8305260
0.192400	0.8310312
0.192600	0.8316860
0.192800	0.8324756
0.193000	0.8333788
0.193200	0.8343716
0.193400	0.8354304
0.193600	0.8365396
0.193800	0.8376916
0.194000	0.8388800
0.194200	0.8400888
0.194400	0.8412916
0.194600	0.8424548
0.194800	0.8435468
0.195000	0.8445456
0.195200	0.8454460
0.195400	0.8462600
0.195600	0.8470140
0.195800	0.8477412
0.196000	0.8484652
0.196200	0.8491924
0.196400	0.8499092
0.196600	0.8505868
0.196800	0.8511924
0.197000	0.8516992
0.197200	0.8520920
0.197400	0.8523648
0.197600	0.8525108
