# XXZ spin model with modualted magnetic field S=1/2
# L=16, number_of_particles=7, J=1.0, Delta=1.0
# gap ratio r
# Field strength W, gap ratio r

0.50	0.5945
0.75	0.5969
1.00	0.5984
1.25	0.5991
1.50	0.6028
1.75	0.5986
2.00	0.5950
2.25	0.5870
2.50	0.5755
2.75	0.5637
3.00	0.5458
3.25	0.5200
3.50	0.4863
3.75	0.4545
4.00	0.4343
4.25	0.4184
4.50	0.4040
