# XXZ chain with NNN perturbation
# L = 28, S_z^tot = 4, J = 1, Delta = 0.5, g = 0.15
# Time dependence of normalized spin current autocorrelation function
# Fitted by 0.15*exp(-0.004*x)
# t, C_sigma(t)

0.000000000000000000e+00 1.000000000000000000e+00
1.000000000000000000e+00 9.666836931988194159e-01
2.000000000000000000e+00 8.878389799542978356e-01
3.000000000000000000e+00 7.962723627476598898e-01
4.000000000000000000e+00 7.082682656965453294e-01
5.000000000000000000e+00 6.297014104386783329e-01
6.000000000000000000e+00 5.631702088089373115e-01
7.000000000000000000e+00 5.097573145712770426e-01
8.000000000000000000e+00 4.695243555510613676e-01
9.000000000000000000e+00 4.417677354144572410e-01
1.000000000000000000e+01 4.251890821602371529e-01
1.100000000000000000e+01 4.180461737688231372e-01
1.200000000000000000e+01 4.183396077694156445e-01
1.300000000000000000e+01 4.240507233921167463e-01
1.400000000000000000e+01 4.332614714596125793e-01
1.500000000000000000e+01 4.440022709594019790e-01
1.600000000000000000e+01 4.542585203897480661e-01
1.700000000000000000e+01 4.624169707228666382e-01
1.800000000000000000e+01 4.674362646567314927e-01
1.900000000000000000e+01 4.686601755371188616e-01
2.000000000000000000e+01 4.658541049534192235e-01
2.100000000000000000e+01 4.592278467557052157e-01
2.200000000000000000e+01 4.493212962342978956e-01
2.300000000000000000e+01 4.369166895499148606e-01
2.400000000000000000e+01 4.229403372034037933e-01
2.500000000000000000e+01 4.083778557529444964e-01
2.600000000000000000e+01 3.941980886249236149e-01
2.700000000000000000e+01 3.812609394895211667e-01
2.800000000000000000e+01 3.702301191317042828e-01
2.900000000000000000e+01 3.615174760669851439e-01
3.000000000000000000e+01 3.552639426022806690e-01
3.100000000000000000e+01 3.513795156195583802e-01
3.200000000000000000e+01 3.496025573792762575e-01
3.300000000000000000e+01 3.495122975041873858e-01
3.400000000000000000e+01 3.505504309994413870e-01
3.500000000000000000e+01 3.521013351900345589e-01
3.600000000000000000e+01 3.535539678396850682e-01
3.700000000000000000e+01 3.543625925275402100e-01
3.800000000000000000e+01 3.541208314134707824e-01
3.900000000000000000e+01 3.525833244510958031e-01
4.000000000000000000e+01 3.496580425810766890e-01
4.100000000000000000e+01 3.454138740368578597e-01
4.200000000000000000e+01 3.400533231441379423e-01
4.300000000000000000e+01 3.338622677394100791e-01
4.400000000000000000e+01 3.271727403995220440e-01
4.500000000000000000e+01 3.203439947122230236e-01
4.600000000000000000e+01 3.137458664624023785e-01
4.700000000000000000e+01 3.077154729730925964e-01
4.800000000000000000e+01 3.025207087622597268e-01
4.900000000000000000e+01 2.983427644406166368e-01
5.000000000000000000e+01 2.952596282492336299e-01
5.100000000000000000e+01 2.932330423166361055e-01
5.200000000000000000e+01 2.921191049312253929e-01
5.300000000000000000e+01 2.916983638719281569e-01
5.400000000000000000e+01 2.917015328316087119e-01
5.500000000000000000e+01 2.918249884558218876e-01
5.600000000000000000e+01 2.917732463516311547e-01
5.700000000000000000e+01 2.913043940595334558e-01
5.800000000000000000e+01 2.902510039866447733e-01
5.900000000000000000e+01 2.885224456438343910e-01
6.000000000000000000e+01 2.861116246121027107e-01
6.100000000000000000e+01 2.830841412204034291e-01
6.200000000000000000e+01 2.795647982572505019e-01
6.300000000000000000e+01 2.757286247940267665e-01
6.400000000000000000e+01 2.717758294099790195e-01
6.500000000000000000e+01 2.679025944739097942e-01
6.600000000000000000e+01 2.642682191350644860e-01
6.700000000000000000e+01 2.609753769250107713e-01
6.800000000000000000e+01 2.580763593737955830e-01
6.900000000000000000e+01 2.555899640604499812e-01
7.000000000000000000e+01 2.535079317453562409e-01
7.100000000000000000e+01 2.517880400917059669e-01
7.200000000000000000e+01 2.503564245303776525e-01
7.300000000000000000e+01 2.491234685982928743e-01
7.400000000000000000e+01 2.480046964892993477e-01
7.500000000000000000e+01 2.469210213639268792e-01
7.600000000000000000e+01 2.457784586038146424e-01
7.700000000000000000e+01 2.444825451679517869e-01
7.800000000000000000e+01 2.429719031695882214e-01
7.900000000000000000e+01 2.412277599883931589e-01
8.000000000000000000e+01 2.392606074663521099e-01
8.100000000000000000e+01 2.370905689783548431e-01
8.200000000000000000e+01 2.347527381660362567e-01
8.300000000000000000e+01 2.322976919164540244e-01
8.400000000000000000e+01 2.297846373782072849e-01
8.500000000000000000e+01 2.272845944852138755e-01
8.600000000000000000e+01 2.248746926143237179e-01
8.700000000000000000e+01 2.226021909669496368e-01
8.800000000000000000e+01 2.204738205386060079e-01
8.900000000000000000e+01 2.184900293547738792e-01
9.000000000000000000e+01 2.166433852073469390e-01
9.100000000000000000e+01 2.149106071170290844e-01
9.200000000000000000e+01 2.132740959091889710e-01
9.300000000000000000e+01 2.117209656849678989e-01
9.400000000000000000e+01 2.102253629769838816e-01
9.500000000000000000e+01 2.087460949390851916e-01
9.600000000000000000e+01 2.072422342378754390e-01
9.700000000000000000e+01 2.056884724120707497e-01
9.800000000000000000e+01 2.040658573037594237e-01
9.900000000000000000e+01 2.023637262739381715e-01
1.000000000000000000e+02 2.005881587777373909e-01
1.010000000000000000e+02 1.987499592581562780e-01
1.020000000000000000e+02 1.968696370090367853e-01
1.030000000000000000e+02 1.949887982786921437e-01
1.040000000000000000e+02 1.931413114902673644e-01
1.050000000000000000e+02 1.913329500746140110e-01
1.060000000000000000e+02 1.895662915407543281e-01
1.070000000000000000e+02 1.878599214940810114e-01
1.080000000000000000e+02 1.862320668660679968e-01
1.090000000000000000e+02 1.846858052015366847e-01
1.100000000000000000e+02 1.832111079602629367e-01
1.110000000000000000e+02 1.817952312726593134e-01
1.120000000000000000e+02 1.804237191590377654e-01
1.130000000000000000e+02 1.790832483651347284e-01
1.140000000000000000e+02 1.777657671694158337e-01
1.150000000000000000e+02 1.764579531161808712e-01
1.160000000000000000e+02 1.751514959581956798e-01
1.170000000000000000e+02 1.738489366936415981e-01
1.180000000000000000e+02 1.725556947082508841e-01
1.190000000000000000e+02 1.712730486432934573e-01
1.200000000000000000e+02 1.699752770659412049e-01
1.210000000000000000e+02 1.686265382541510538e-01
1.220000000000000000e+02 1.672218406749342579e-01
1.230000000000000000e+02 1.657889226194549648e-01
1.240000000000000000e+02 1.643605769359618440e-01
1.250000000000000000e+02 1.629505501603050466e-01
1.260000000000000000e+02 1.615657546104476427e-01
1.270000000000000000e+02 1.602187773063606657e-01
1.280000000000000000e+02 1.589188657771105906e-01
1.290000000000000000e+02 1.576700599788948831e-01
1.300000000000000000e+02 1.564785170007271520e-01
1.310000000000000000e+02 1.553457306686325534e-01
1.320000000000000000e+02 1.542538716166282908e-01
1.330000000000000000e+02 1.531772596502639083e-01
1.340000000000000000e+02 1.520962255828567644e-01
1.350000000000000000e+02 1.509934042646242092e-01
1.360000000000000000e+02 1.498616191613786619e-01
1.370000000000000000e+02 1.487156975256056501e-01
1.380000000000000000e+02 1.475777873201699064e-01
1.390000000000000000e+02 1.464541508783750445e-01
1.400000000000000000e+02 1.453443977451678859e-01
1.410000000000000000e+02 1.442462934475121361e-01
1.420000000000000000e+02 1.431540386169564971e-01
1.430000000000000000e+02 1.420724701233244680e-01
1.440000000000000000e+02 1.410192001892782154e-01
1.450000000000000000e+02 1.399995293569221699e-01
1.460000000000000000e+02 1.390006189762799105e-01
1.470000000000000000e+02 1.380130822152251246e-01
1.480000000000000000e+02 1.370463003887962827e-01
1.490000000000000000e+02 1.361142296638921390e-01
1.500000000000000000e+02 1.352123633535903258e-01
1.510000000000000000e+02 1.343168239588631019e-01
1.520000000000000000e+02 1.333954694148723752e-01
1.530000000000000000e+02 1.324331599492629963e-01
1.540000000000000000e+02 1.314357771607045089e-01
1.550000000000000000e+02 1.304182340925444106e-01
1.560000000000000000e+02 1.293948518886316457e-01
1.570000000000000000e+02 1.283750572438714099e-01
1.580000000000000000e+02 1.273683151522793655e-01
1.590000000000000000e+02 1.263901144283076650e-01
1.600000000000000000e+02 1.254479495180637616e-01
1.610000000000000000e+02 1.245337828519718082e-01
1.620000000000000000e+02 1.236308930201221595e-01
1.630000000000000000e+02 1.227225557845543075e-01
1.640000000000000000e+02 1.218067762496702483e-01
1.650000000000000000e+02 1.208993034279942647e-01
1.660000000000000000e+02 1.200252450572244223e-01
1.670000000000000000e+02 1.192124064975590564e-01
1.680000000000000000e+02 1.184677201279951131e-01
1.690000000000000000e+02 1.177655595323159193e-01
1.700000000000000000e+02 1.170607309458121664e-01
1.710000000000000000e+02 1.163151184509323283e-01
1.720000000000000000e+02 1.155281935511760921e-01
1.730000000000000000e+02 1.147248813462456718e-01
1.740000000000000000e+02 1.139234236552846558e-01
1.750000000000000000e+02 1.131247944644910991e-01
1.760000000000000000e+02 1.123211111264737494e-01
1.770000000000000000e+02 1.115089918121496687e-01
1.780000000000000000e+02 1.106976143954544328e-01
1.790000000000000000e+02 1.099043695919662555e-01
1.800000000000000000e+02 1.091352315139468843e-01
1.810000000000000000e+02 1.083821021904699394e-01
1.820000000000000000e+02 1.076400958614506798e-01
1.830000000000000000e+02 1.068990455379384835e-01
1.840000000000000000e+02 1.061443030724884273e-01
1.850000000000000000e+02 1.053877129758074155e-01
1.860000000000000000e+02 1.046542714488424425e-01
1.870000000000000000e+02 1.039482222797712130e-01
1.880000000000000000e+02 1.032678008419927046e-01
1.890000000000000000e+02 1.026180553647946109e-01
1.900000000000000000e+02 1.019877299094395645e-01
1.910000000000000000e+02 1.013496472924626940e-01
1.920000000000000000e+02 1.006826264385267122e-01
1.930000000000000000e+02 9.997883282808044114e-02
1.940000000000000000e+02 9.923614619534106007e-02
1.950000000000000000e+02 9.845280692393509892e-02
1.960000000000000000e+02 9.764083407171211815e-02
1.970000000000000000e+02 9.682579236282298774e-02
1.980000000000000000e+02 9.602680725661251471e-02
1.990000000000000000e+02 9.526106362779118708e-02
2.000000000000000000e+02 9.454682539556007181e-02
2.010000000000000000e+02 9.389232569745460666e-02
2.020000000000000000e+02 9.329267203935337482e-02
2.030000000000000000e+02 9.272611833612848242e-02
2.040000000000000000e+02 9.216814600028207238e-02
2.050000000000000000e+02 9.160979573267105658e-02
2.060000000000000000e+02 9.104059644294779097e-02
2.070000000000000000e+02 9.044359466894770494e-02
2.080000000000000000e+02 8.982908469818220998e-02
2.090000000000000000e+02 8.922522634638577199e-02
2.100000000000000000e+02 8.863671050776482374e-02
2.110000000000000000e+02 8.804751384628006772e-02
2.120000000000000000e+02 8.745247411515678915e-02
2.130000000000000000e+02 8.686962502646797257e-02
2.140000000000000000e+02 8.630916036023801585e-02
2.150000000000000000e+02 8.575323928196376677e-02
2.160000000000000000e+02 8.518762175056503183e-02
2.170000000000000000e+02 8.462381897160424493e-02
2.180000000000000000e+02 8.407562761959266884e-02
2.190000000000000000e+02 8.353727747223946287e-02
2.200000000000000000e+02 8.300433977529593499e-02
2.210000000000000000e+02 8.249357885394405232e-02
2.220000000000000000e+02 8.202178050554062572e-02
2.230000000000000000e+02 8.157990514935854753e-02
2.240000000000000000e+02 8.113896666470633845e-02
2.250000000000000000e+02 8.067690225858115127e-02
2.260000000000000000e+02 8.018562250193136953e-02
2.270000000000000000e+02 7.966280466465651411e-02
2.280000000000000000e+02 7.911314388521692442e-02
2.290000000000000000e+02 7.855551080563226429e-02
2.300000000000000000e+02 7.801404135761098868e-02
2.310000000000000000e+02 7.750340673268465985e-02
2.320000000000000000e+02 7.702946877110816715e-02
2.330000000000000000e+02 7.658605109572523550e-02
2.340000000000000000e+02 7.615543814296896197e-02
2.350000000000000000e+02 7.572736078086897415e-02
2.360000000000000000e+02 7.530172515489186313e-02
2.370000000000000000e+02 7.487838265946962502e-02
2.380000000000000000e+02 7.445653926967540914e-02
2.390000000000000000e+02 7.403255841777882373e-02
2.400000000000000000e+02 7.360523167073858286e-02
2.410000000000000000e+02 7.317556929938316690e-02
2.420000000000000000e+02 7.273984373539030268e-02
2.430000000000000000e+02 7.230759430641113539e-02
2.440000000000000000e+02 7.189632492664514707e-02
2.450000000000000000e+02 7.150917187242972206e-02
2.460000000000000000e+02 7.113466785877273213e-02
2.470000000000000000e+02 7.075311650887278203e-02
2.480000000000000000e+02 7.035198280213666999e-02
2.490000000000000000e+02 6.993255879772786177e-02
2.500000000000000000e+02 6.950787126214413858e-02
2.510000000000000000e+02 6.909571038870723769e-02
2.520000000000000000e+02 6.869965502589572837e-02
2.530000000000000000e+02 6.830853236227313330e-02
2.540000000000000000e+02 6.791881778019388805e-02
2.550000000000000000e+02 6.752980775923921042e-02
2.560000000000000000e+02 6.713081439498902458e-02
2.570000000000000000e+02 6.671713544591888201e-02
2.580000000000000000e+02 6.630024858195517068e-02
2.590000000000000000e+02 6.590160801064511020e-02
2.600000000000000000e+02 6.553444303966031448e-02
2.610000000000000000e+02 6.518840682465457115e-02
2.620000000000000000e+02 6.484555204882941348e-02
2.630000000000000000e+02 6.449509929609503756e-02
2.640000000000000000e+02 6.413092252340248101e-02
2.650000000000000000e+02 6.374659634753378212e-02
2.660000000000000000e+02 6.333712671780718229e-02
2.670000000000000000e+02 6.290871658853079695e-02
2.680000000000000000e+02 6.247104256816429085e-02
2.690000000000000000e+02 6.202707573834000121e-02
2.700000000000000000e+02 6.157473376624861966e-02
2.710000000000000000e+02 6.111850437743751585e-02
2.720000000000000000e+02 6.068393184734204027e-02
2.730000000000000000e+02 6.029981221611881853e-02
2.740000000000000000e+02 5.996271443597684520e-02
2.750000000000000000e+02 5.964815179830320474e-02
2.760000000000000000e+02 5.933537033104079039e-02
2.770000000000000000e+02 5.900999797351556136e-02
2.780000000000000000e+02 5.866707810078120033e-02
2.790000000000000000e+02 5.831395162323862319e-02
2.800000000000000000e+02 5.796525042446699222e-02
2.810000000000000000e+02 5.762801595271427324e-02
2.820000000000000000e+02 5.729532738160266619e-02
2.830000000000000000e+02 5.696206389087941219e-02
2.840000000000000000e+02 5.663465923247554268e-02
2.850000000000000000e+02 5.631952883431944751e-02
2.860000000000000000e+02 5.601686874839904851e-02
2.870000000000000000e+02 5.571194690177002501e-02
2.880000000000000000e+02 5.537420005306815940e-02
2.890000000000000000e+02 5.499187151238496551e-02
2.900000000000000000e+02 5.457692490421992004e-02
2.910000000000000000e+02 5.414640422137104170e-02
2.920000000000000000e+02 5.371801615712255840e-02
2.930000000000000000e+02 5.330796729533994471e-02
2.940000000000000000e+02 5.292690825391904719e-02
2.950000000000000000e+02 5.258209592257135495e-02
2.960000000000000000e+02 5.227495423392041624e-02
2.970000000000000000e+02 5.199310482982419379e-02
2.980000000000000000e+02 5.172724296142229561e-02
2.990000000000000000e+02 5.148658912928399251e-02
3.000000000000000000e+02 5.128183304392400915e-02
3.010000000000000000e+02 5.110807385587540913e-02
3.020000000000000000e+02 5.094758848351740865e-02
3.030000000000000000e+02 5.079204844542412056e-02
3.040000000000000000e+02 5.064296933726918776e-02
3.050000000000000000e+02 5.048903842794343760e-02
3.060000000000000000e+02 5.031498370901475725e-02
3.070000000000000000e+02 5.011569577764784372e-02
3.080000000000000000e+02 4.989421693177702871e-02
3.090000000000000000e+02 4.965492047561448352e-02
3.100000000000000000e+02 4.940028284092327221e-02
3.110000000000000000e+02 4.912535914498135370e-02
3.120000000000000000e+02 4.882755375440224477e-02
3.130000000000000000e+02 4.852053415993999586e-02
3.140000000000000000e+02 4.821658980215645651e-02
3.150000000000000000e+02 4.790846341977867545e-02
3.160000000000000000e+02 4.758347039412525598e-02
3.170000000000000000e+02 4.724304174529456862e-02
3.180000000000000000e+02 4.689235514103907987e-02
3.190000000000000000e+02 4.653415551899633962e-02
3.200000000000000000e+02 4.617538588821295392e-02
3.210000000000000000e+02 4.582732823759892021e-02
3.220000000000000000e+02 4.549901553749526040e-02
3.230000000000000000e+02 4.519426382076403848e-02
3.240000000000000000e+02 4.491465386885946931e-02
3.250000000000000000e+02 4.466149286302495414e-02
3.260000000000000000e+02 4.442938299516324685e-02
3.270000000000000000e+02 4.421514940895598933e-02
3.280000000000000000e+02 4.403362860129152179e-02
3.290000000000000000e+02 4.389732965101070944e-02
3.300000000000000000e+02 4.379240194307219142e-02
3.310000000000000000e+02 4.368755792671342314e-02
3.320000000000000000e+02 4.355854348649837449e-02
3.330000000000000000e+02 4.340248672790036899e-02
3.340000000000000000e+02 4.323180988350955323e-02
3.350000000000000000e+02 4.305389323474417829e-02
3.360000000000000000e+02 4.286033746179312293e-02
3.370000000000000000e+02 4.263300482005880770e-02
3.380000000000000000e+02 4.236234951628724266e-02
3.390000000000000000e+02 4.205893299019802800e-02
3.400000000000000000e+02 4.174184746009542563e-02
3.410000000000000000e+02 4.143530003606062800e-02
3.420000000000000000e+02 4.116454432728721552e-02
3.430000000000000000e+02 4.092873566760828197e-02
3.440000000000000000e+02 4.070389190272384605e-02
3.450000000000000000e+02 4.048168282890318020e-02
3.460000000000000000e+02 4.026991334247601723e-02
3.470000000000000000e+02 4.006935987234170465e-02
3.480000000000000000e+02 3.988335956197505000e-02
3.490000000000000000e+02 3.972107180798845061e-02
3.500000000000000000e+02 3.958544378853175172e-02
3.510000000000000000e+02 3.947251638015562836e-02
3.520000000000000000e+02 3.937516486754148726e-02
3.530000000000000000e+02 3.928072657886990532e-02
3.540000000000000000e+02 3.917691258355020245e-02
3.550000000000000000e+02 3.905968477872489436e-02
3.560000000000000000e+02 3.892254203897472370e-02
3.570000000000000000e+02 3.875286089617328150e-02
3.580000000000000000e+02 3.855149032635882267e-02
3.590000000000000000e+02 3.832975446465098496e-02
3.600000000000000000e+02 3.809425863164611625e-02
3.610000000000000000e+02 3.785428473866851717e-02
3.620000000000000000e+02 3.763371690132896047e-02
3.630000000000000000e+02 3.744536913323412430e-02
3.640000000000000000e+02 3.726542023839814893e-02
3.650000000000000000e+02 3.706193194963903342e-02
3.660000000000000000e+02 3.682634307340226787e-02
3.670000000000000000e+02 3.656724850822362649e-02
3.680000000000000000e+02 3.629960081249775788e-02
3.690000000000000000e+02 3.604142639484934213e-02
3.700000000000000000e+02 3.580854274995728947e-02
3.710000000000000000e+02 3.560691908915852161e-02
3.720000000000000000e+02 3.543023933048063817e-02
3.730000000000000000e+02 3.526583866005626733e-02
3.740000000000000000e+02 3.509965911749104300e-02
3.750000000000000000e+02 3.492229900077644528e-02
3.760000000000000000e+02 3.473859032527305130e-02
3.770000000000000000e+02 3.456317120749519828e-02
3.780000000000000000e+02 3.440687998978191053e-02
3.790000000000000000e+02 3.426346060532736021e-02
3.800000000000000000e+02 3.412343467156023907e-02
3.810000000000000000e+02 3.398794806257180584e-02
3.820000000000000000e+02 3.385423989160239039e-02
3.830000000000000000e+02 3.371334937101369555e-02
3.840000000000000000e+02 3.355546899426978952e-02
3.850000000000000000e+02 3.337892718503278344e-02
3.860000000000000000e+02 3.319890747205904435e-02
3.870000000000000000e+02 3.303083255893284748e-02
3.880000000000000000e+02 3.287650628507439443e-02
3.890000000000000000e+02 3.273511382711841861e-02
3.900000000000000000e+02 3.259401680333870455e-02
3.910000000000000000e+02 3.242652506590876227e-02
3.920000000000000000e+02 3.222900423853822249e-02
3.930000000000000000e+02 3.202330379034469543e-02
3.940000000000000000e+02 3.182256469880026528e-02
