# Long-range Heisenberg model
# L = 45, S_z^tot = -35/2, J = 1, Delta = 0.2, Alpha = 2.5
# Time dependence of center of mass, i.e. first density moment of <Sz_l(t)>
# time, center of mass

0.0000000000000000 3.0000000000000000
5.0000000000000003E-002 3.0001494260568742
0.10000000000000001 3.0005975720352009
0.15000000000000002 3.0013440427881797
0.20000000000000001 3.0023881844835820
0.25000000000000000 3.0037290916487089
0.29999999999999999 3.0053656168872411
0.34999999999999998 3.0072963831251185
0.39999999999999997 3.0095197982061666
0.44999999999999996 3.0120340716250196
0.49999999999999994 3.0148372331555686
0.54999999999999993 3.0179271531079523
0.59999999999999998 3.0213015639267780
0.65000000000000002 3.0249580828277471
0.70000000000000007 3.0288942351596204
0.75000000000000011 3.0331074781734606
0.80000000000000016 3.0375952248814886
0.85000000000000020 3.0423548676932159
0.90000000000000024 3.0473838015271473
0.95000000000000029 3.0526794461113229
1.0000000000000002 3.0582392672054719
1.0500000000000003 3.0640607965007387
1.1000000000000003 3.0701416499794405
1.1500000000000004 3.0764795445467219
1.2000000000000004 3.0830723127772774
1.2500000000000004 3.0899179156531207
1.3000000000000005 3.0970144532024855
1.3500000000000005 3.1043601729836063
1.4000000000000006 3.1119534763909145
1.4500000000000006 3.1197929227938537
1.5000000000000007 3.1278772315496064
1.5500000000000007 3.1362052819602892
1.6000000000000008 3.1447761112716552
1.6500000000000008 3.1535889108346078
1.7000000000000008 3.1626430205712386
1.7500000000000009 3.1719379219049029
1.8000000000000009 3.1814732293277337
1.8500000000000010 3.1912486807894034
1.9000000000000010 3.2012641270978803
1.9500000000000011 3.2115195205263922
2.0000000000000009 3.2220149028208125
2.0500000000000007 3.2327503927984789
2.1000000000000005 3.2437261737235192
2.1500000000000004 3.2549424806349720
2.2000000000000002 3.2663995877927841
2.2500000000000000 3.2780977963938218
2.2999999999999998 3.2900374226955180
2.3499999999999996 3.3022187866678001
2.3999999999999995 3.3146422012787164
2.4499999999999993 3.3273079624996047
2.4999999999999991 3.3402163400997682
2.5499999999999989 3.3533675692820846
2.5999999999999988 3.3667618431936068
2.6499999999999986 3.3803993063301410
2.6999999999999984 3.3942800488363796
2.7499999999999982 3.4084041016904671
2.7999999999999980 3.4227714327478198
2.8499999999999979 3.4373819436079311
2.8999999999999977 3.4522354672577586
2.9499999999999975 3.4673317664367334
2.9999999999999973 3.4826705326616567
3.0499999999999972 3.4982513858444864
3.0999999999999970 3.5140738744327460
3.1499999999999968 3.5301374759991822
3.1999999999999966 3.5464415982081343
3.2499999999999964 3.5629855800845784
3.2999999999999963 3.5797686935155415
3.3499999999999961 3.5967901449150790
3.3999999999999959 3.6140490769880391
3.4499999999999957 3.6315445705328866
3.4999999999999956 3.6492756462273834
3.5499999999999954 3.6672412663486411
3.5999999999999952 3.6854403363829786
3.6499999999999950 3.7038717064878952
3.6999999999999948 3.7225341727758017
3.7499999999999947 3.7414264783922371
3.7999999999999945 3.7605473143709358
3.8499999999999943 3.7798953202521322
3.8999999999999941 3.7994690844554504
3.9499999999999940 3.8192671444062967
3.9999999999999938 3.8392879864173235
4.0499999999999936 3.8595300453319616
4.0999999999999934 3.8799917039423906
4.1499999999999932 3.9006712921956592
4.1999999999999931 3.9215670862068839
4.2499999999999929 3.9426773071008436
4.2999999999999927 3.9640001197047425
4.3499999999999925 3.9855336311194782
4.3999999999999924 4.0072758891942106
4.4499999999999922 4.0292248809359110
4.4999999999999920 4.0513785308805232
4.5499999999999918 4.0737346994583001
4.5999999999999917 4.0962911813818526
4.6499999999999915 4.1190457040888200
4.6999999999999913 4.1419959262681632
4.7499999999999911 4.1651394365005565
4.7999999999999909 4.1884737520401600
4.8499999999999908 4.2119963177667632
4.8999999999999906 4.2357045053335183
4.9499999999999904 4.2595956125356462
4.9999999999999902 4.2836668629224555
5.0499999999999901 4.3079154056727349
5.0999999999999899 4.3323383157554956
5.1499999999999897 4.3569325943878408
5.1999999999999895 4.3816951698069273
5.2499999999999893 4.4066228983674227
5.2999999999999892 4.4317125659707628
5.3499999999999890 4.4569608898345878
5.3999999999999888 4.4823645206022817
5.4499999999999886 4.5079200447953776
5.4999999999999885 4.5336239876040016
5.5499999999999883 4.5594728160089604
5.5999999999999881 4.5854629422290873
5.6499999999999879 4.6115907274797179
5.6999999999999877 4.6378524860286241
5.7499999999999876 4.6642444895350907
5.7999999999999874 4.6907629716495371
5.8499999999999872 4.7174041328563154
5.8999999999999870 4.7441641455346621
5.9499999999999869 4.7710391592137738
5.9999999999999867 4.7980253059979638
6.0499999999999865 4.8251187061337095
6.0999999999999863 4.8523154736921255
6.1499999999999861 4.8796117223392947
6.1999999999999860 4.9070035711659781
6.2499999999999858 4.9344871505511216
6.2999999999999856 4.9620586080284053
6.3499999999999854 4.9897141141338750
6.3999999999999853 5.0174498682043653
6.4499999999999851 5.0452621041071373
6.4999999999999849 5.0731470958718567
6.5499999999999847 5.1011011632064758
6.5999999999999845 5.1291206768780677
6.6499999999999844 5.1572020639328722
6.6999999999999842 5.1853418127449524
6.7499999999999840 5.2135364778738111
6.7999999999999838 5.2417826847160374
6.8499999999999837 5.2700771339407364
6.8999999999999835 5.2984166056919086
6.9499999999999833 5.3267979635530294
6.9999999999999831 5.3552181582597607
7.0499999999999829 5.3836742311553376
7.0999999999999828 5.4121633173789583
7.1499999999999826 5.4406826487826372
7.1999999999999824 5.4692295565692852
7.2499999999999822 5.4978014736475602
7.2999999999999821 5.5263959366986475
7.3499999999999819 5.5550105879511307
7.3999999999999817 5.5836431766594758
7.4499999999999815 5.6122915602858656
7.4999999999999813 5.6409537053779388
7.5499999999999812 5.6696276881447032
7.5999999999999810 5.6983116947273800
7.6499999999999808 5.7270040211629976
7.6999999999999806 5.7557030730445238
7.7499999999999805 5.7844073648711003
7.7999999999999803 5.8131155190975639
7.8499999999999801 5.8418262648794856
7.8999999999999799 5.8705384365205253
7.9499999999999797 5.8992509716257260
7.9999999999999796 5.9279629089642691
8.0499999999999794 5.9566733860553027
8.0999999999999801 5.9853816364777499
8.1499999999999808 6.0140869869180120
8.1999999999999815 6.0427888539687507
8.2499999999999822 6.0714867406873649
8.2999999999999829 6.1001802329347576
8.3499999999999837 6.1288689955026818
8.3999999999999844 6.1575527680558331
8.4499999999999851 6.1862313608995283
8.4999999999999858 6.2149046505989052
8.5499999999999865 6.2435725754668212
8.5999999999999872 6.2722351309450604
8.6499999999999879 6.3008923648993012
8.6999999999999886 6.3295443728510135
8.7499999999999893 6.3581912931734967
8.7999999999999901 6.3868333022703805
8.8499999999999908 6.4154706097643173
8.8999999999999915 6.4441034537176440
8.9499999999999922 6.4727320959076353
8.9999999999999929 6.5013568171808673
9.0499999999999936 6.5299779129043083
9.0999999999999943 6.5585956885382632
9.1499999999999950 6.5872104553479174
9.1999999999999957 6.6158225262725949
9.2499999999999964 6.6444322119689501
9.2999999999999972 6.6730398170452085
9.3499999999999979 6.7016456364989816
9.3999999999999986 6.7302499523727297
9.4499999999999993 6.7588530306350929
9.5000000000000000 6.7874551183018745
9.5500000000000007 6.8160564408001836
9.6000000000000014 6.8446571995857228
9.6500000000000021 6.8732575700138439
9.7000000000000028 6.9018576994732097
9.7500000000000036 6.9304577057801513
9.8000000000000043 6.9590576758336482
9.8500000000000050 6.9876576645347432
9.9000000000000057 7.0162576939622330
9.9500000000000064 7.0448577528108176
10.000000000000007 7.0734577960733702
10.050000000000008 7.1020577449795113
10.100000000000009 7.1306574871667854
10.150000000000009 7.1592568770926261
10.200000000000010 7.1878557366680509
10.250000000000011 7.2164538561061411
10.300000000000011 7.2450509949827495
10.350000000000012 7.2736468834884924
10.400000000000013 7.3022412238654795
10.450000000000014 7.3308336920197377
10.500000000000014 7.3594239392889396
10.550000000000015 7.3880115943545182
10.600000000000016 7.4165962652923056
10.650000000000016 7.4451775417304367
10.700000000000017 7.4737549971131463
10.750000000000018 7.5023281910483330
10.800000000000018 7.5308966717218109
10.850000000000019 7.5594599783669327
10.900000000000020 7.5880176437633375
10.950000000000021 7.6165691967592837
11.000000000000021 7.6451141647881569
11.050000000000022 7.6736520763708072
11.100000000000023 7.7021824635851841
11.150000000000023 7.7307048644810532
11.200000000000024 7.7592188254297279
11.250000000000025 7.7877239033917736
11.300000000000026 7.8162196680809011
11.350000000000026 7.8447057040209085
11.400000000000027 7.8731816124733394
11.450000000000028 7.9016470132230427
11.500000000000028 7.9301015462206585
11.550000000000029 7.9585448730558994
11.600000000000030 7.9869766782654468
11.650000000000031 8.0153966704636712
11.700000000000031 8.0438045832896812
11.750000000000032 8.0722001761619531
11.800000000000033 8.1005832348487541
11.850000000000033 8.1289535718425867
11.900000000000034 8.1573110265383413
11.950000000000035 8.1856554652246825
12.000000000000036 8.2139867808868310
12.050000000000036 8.2423048928213944
12.100000000000037 8.2706097460773140
12.150000000000038 8.2989013107216447
12.200000000000038 8.3271795809455220
12.250000000000039 8.3554445740169996
12.300000000000040 8.3836963290888065
12.350000000000041 8.4119349058769100
12.400000000000041 8.4401603832218210
12.450000000000042 8.4683728575420787
12.500000000000043 8.4965724411949370
12.550000000000043 8.5247592607673184
12.600000000000044 8.5529334552962286
12.650000000000045 8.5810951744476291
12.700000000000045 8.6092445766593659
12.750000000000046 8.6373818272719483
12.800000000000047 8.6655070966537444
12.850000000000048 8.6936205583436301
12.900000000000048 8.7217223872167828
12.950000000000049 8.7498127577028981
13.000000000000050 8.7778918420477066
13.050000000000050 8.8059598086580788
13.100000000000051 8.8340168205216987
13.150000000000052 8.8620630337222686
13.200000000000053 8.8900985960614083
13.250000000000053 8.9181236457967987
13.300000000000054 8.9461383105023753
13.350000000000055 8.9741427060614658
13.400000000000055 9.0021369358016514
13.450000000000056 9.0301210897682864
13.500000000000057 9.0580952441523621
13.550000000000058 9.0860594608651670
13.600000000000058 9.1140137872716878
13.650000000000059 9.1419582560749930
13.700000000000060 9.1698928853500981
13.750000000000060 9.1978176787332906
13.800000000000061 9.2257326257561481
13.850000000000062 9.2536377023209155
13.900000000000063 9.2815328713111125
13.950000000000063 9.3094180833319378
14.000000000000064 9.3372932775705308
14.050000000000065 9.3651583827641591
14.100000000000065 9.3930133182729847
14.150000000000066 9.4208579952362790
14.200000000000067 9.4486923178101101
14.250000000000068 9.4765161844626196
14.300000000000068 9.5043294893301411
14.350000000000069 9.5321321236018335
14.400000000000070 9.5599239769306870
14.450000000000070 9.5877049388558984
14.500000000000071 9.6154749002200628
14.550000000000072 9.6432337545662374
14.600000000000072 9.6709813995096816
14.650000000000073 9.6987177380589458
14.700000000000074 9.7264426798852792
14.750000000000075 9.7541561425194772
14.800000000000075 9.7818580524761849
14.850000000000076 9.8095483462817690
14.900000000000077 9.8372269714081799
14.950000000000077 9.8648938871021201
15.000000000000078 9.8925490650981747
15.050000000000079 9.9201924902112584
15.100000000000080 9.9478241608127647
15.150000000000080 9.9754440891775733
15.200000000000081 10.003052301702441
15.250000000000082 10.030648838994138
15.300000000000082 10.058233755832990
15.350000000000083 10.085807121010600
15.400000000000084 10.113369017044892
15.450000000000085 10.140919539773494
15.500000000000085 10.168458797838994
15.550000000000086 10.195986912064166
15.600000000000087 10.223504014732827
15.650000000000087 10.251010248775751
15.700000000000088 10.278505766878371
15.750000000000089 10.305990730516637
15.800000000000090 10.333465308928860
15.850000000000090 10.360929678044485
15.900000000000091 10.388384019366056
15.950000000000092 10.415828518830480
16.000000000000092 10.443263365649294
16.050000000000093 10.470688751150046
16.100000000000094 10.498104867622224
16.150000000000095 10.525511907181533
16.200000000000095 10.552910060665626
16.250000000000096 10.580299516572941
16.300000000000097 10.607680460044353
16.350000000000097 10.635053071912203
16.400000000000098 10.662417527815819
16.450000000000099 10.689773997392653
16.500000000000099 10.717122643552420
16.550000000000100 10.744463621844226
16.600000000000101 10.771797079914098
16.650000000000102 10.799123157066418
16.700000000000102 10.826441983923484
16.750000000000103 10.853753682191366
16.800000000000104 10.881058364529624
16.850000000000104 10.908356134526551
16.900000000000105 10.935647086777635
16.950000000000106 10.962931307067215
17.000000000000107 10.990208872643006
17.050000000000107 11.017479852591523
17.100000000000108 11.044744308295913
17.150000000000109 11.072002293977143
17.200000000000109 11.099253857316983
17.250000000000110 11.126499040138878
17.300000000000111 11.153737879155653
17.350000000000112 11.180970406768896
17.400000000000112 11.208196651907732
17.450000000000113 11.235416640897890
17.500000000000114 11.262630398360573
17.550000000000114 11.289837948119986
17.600000000000115 11.317039314113449
17.650000000000116 11.344234521299404
17.700000000000117 11.371423596546540
17.750000000000117 11.398606569498641
17.800000000000118 11.425783473406906
17.850000000000119 11.452954345920539
17.900000000000119 11.480119229825702
17.950000000000120 11.507278173729210
18.000000000000121 11.534431232675178
18.050000000000122 11.561578468703143
18.100000000000122 11.588719951318225
18.150000000000123 11.615855757893657
18.200000000000124 11.642985973988095
18.250000000000124 11.670110693582611
18.300000000000125 11.697230019230259
18.350000000000126 11.724344062119865
18.400000000000126 11.751452942060617
18.450000000000127 11.778556787378887
18.500000000000128 11.805655734734144
18.550000000000129 11.832749928860720
18.600000000000129 11.859839522232177
18.650000000000130 11.886924674653978
18.700000000000131 11.914005552797716
18.750000000000131 11.941082329671898
18.800000000000132 11.968155184039750
18.850000000000133 11.995224299795463
18.900000000000134 12.022289865295656
18.950000000000134 12.049352072664091
19.000000000000135 12.076411117069764
19.050000000000136 12.103467195990257
19.100000000000136 12.130520508462032
19.150000000000137 12.157571254335990
19.200000000000138 12.184619633537411
19.250000000000139 12.211665845336697
19.300000000000139 12.238710087642096
19.350000000000140 12.265752556324085
19.400000000000141 12.292793444568591
19.450000000000141 12.319832942273088
19.500000000000142 12.346871235485505
19.550000000000143 12.373908505897052
19.600000000000144 12.400944930383513
19.650000000000144 12.427980680609515
19.700000000000145 12.455015922689613
19.750000000000146 12.482050816915448
19.800000000000146 12.509085517545701
19.850000000000147 12.536120172659551
19.900000000000148 12.563154924076905
19.950000000000149 12.590189907342747
20.000000000000149 12.617225251777070
20.050000000000150 12.644261080584052
20.100000000000151 12.671297511020802
20.150000000000151 12.698334654619426
20.200000000000152 12.725372617466027
20.250000000000153 12.752411500526412
20.300000000000153 12.779451400013462
20.350000000000154 12.806492407794835
20.400000000000155 12.833534611834025
20.450000000000156 12.860578096660262
20.500000000000156 12.887622943856039
20.550000000000157 12.914669232572646
20.600000000000158 12.941717040038391
20.650000000000158 12.968766442088851
20.700000000000159 12.995817513687504
20.750000000000160 13.022870329439270
20.800000000000161 13.049924964093890
20.850000000000161 13.076981493031356
20.900000000000162 13.104039992725806
20.950000000000163 13.131100541176904
21.000000000000163 13.158163218319086
21.050000000000164 13.185228106387097
21.100000000000165 13.212295290243697
21.150000000000166 13.239364857671914
21.200000000000166 13.266436899615014
21.250000000000167 13.293511510378364
21.300000000000168 13.320588787775739
21.350000000000168 13.347668833235200
21.400000000000169 13.374751751850948
21.450000000000170 13.401837652392263
21.500000000000171 13.428926647257430
21.550000000000171 13.456018852387224
21.600000000000172 13.483114387133051
21.650000000000173 13.510213374079983
21.700000000000173 13.537315938834045
21.750000000000174 13.564422209766853
21.800000000000175 13.591532317731033
21.850000000000176 13.618646395744555
21.900000000000176 13.645764578645768
21.950000000000177 13.672887002727949
22.000000000000178 13.700013805358514
22.050000000000178 13.727145124575003
22.100000000000179 13.754281098681226
22.150000000000180 13.781421865834908
22.200000000000180 13.808567563629000
22.250000000000181 13.835718328682802
22.300000000000182 13.862874296235752
22.350000000000183 13.890035599751895
22.400000000000183 13.917202370547525
22.450000000000184 13.944374737427639
22.500000000000185 13.971552826342661
22.550000000000185 13.998736760083744
22.600000000000186 14.025926657987549
22.650000000000187 14.053122635686075
22.700000000000188 14.080324804878002
22.750000000000188 14.107533273137593
22.800000000000189 14.134748143759330
22.850000000000190 14.161969515633695
22.900000000000190 14.189197483163285
22.950000000000191 14.216432136210377
23.000000000000192 14.243673560084190
23.050000000000193 14.270921835563222
23.100000000000193 14.298177038949230
23.150000000000194 14.325439242150679
23.200000000000195 14.352708512808857
23.250000000000195 14.379984914440589
23.300000000000196 14.407268506615003
23.350000000000197 14.434559345153090
23.400000000000198 14.461857482347121
23.450000000000198 14.489162967204187
23.500000000000199 14.516475845703036
23.550000000000200 14.543796161059925
23.600000000000200 14.571123954012968
23.650000000000201 14.598459263108293
23.700000000000202 14.625802124989731
23.750000000000203 14.653152574693665
23.800000000000203 14.680510645932868
23.850000000000204 14.707876371386300
23.900000000000205 14.735249782971264
23.950000000000205 14.762630912110474
24.000000000000206 14.790019789985831
24.050000000000207 14.817416447769192
24.100000000000207 14.844820916846745
24.150000000000208 14.872233229016265
24.200000000000209 14.899653416665215
24.250000000000210 14.927081512927721
24.300000000000210 14.954517551815137
24.350000000000211 14.981961568327588
24.400000000000212 15.009413598531665
24.450000000000212 15.036873679624090
24.500000000000213 15.064341849962554
24.550000000000214 15.091818149073463
24.600000000000215 15.119302617639082
24.650000000000215 15.146795297453425
24.700000000000216 15.174296231366769
24.750000000000217 15.201805463192878
24.800000000000217 15.229323037619425
24.850000000000218 15.256849000077382
24.900000000000219 15.284383396605849
24.950000000000220 15.311926273700850
25.000000000000220 15.339477678148436
25.050000000000221 15.367037656853524
25.100000000000222 15.394606256652144
25.150000000000222 15.422183524122989
25.200000000000223 15.449769505396088
25.250000000000224 15.477364245951398
25.300000000000225 15.504967790428779
25.350000000000225 15.532580182433513
25.400000000000226 15.560201464349486
25.450000000000227 15.587831677155528
25.500000000000227 15.615470860252804
25.550000000000228 15.643119051303644
25.600000000000229 15.670776286077906
25.650000000000230 15.698442598318373
25.700000000000230 15.726118019616630
25.750000000000231 15.753802579300096
25.800000000000232 15.781496304349707
25.850000000000232 15.809199219317129
25.900000000000233 15.836911346276651
25.950000000000234 15.864632704781226
