# XXZ spin chain 
# MCLM for L=32, Delta=0.600
# High-T spin conductivity sigma(omega)
# omega/J sigma(omega) sigma(omega){rescaled} 

0.00008 27.32314 28.1231
0.00010 27.58202 28.382
0.00012 27.83423 28.6342
0.00014 28.07957 28.8796
0.00016 28.31783 29.1178
0.00018 28.54881 29.3488
0.00020 28.77231 29.5723
0.00022 28.98816 29.7882
0.00024 29.19616 29.9962
0.00026 29.39613 30.1961
0.00028 29.58790 30.3879
0.00030 29.77131 30.5713
0.00032 29.94620 30.7462
0.00034 30.11243 30.9124
0.00036 30.26986 31.0699
0.00038 30.41837 31.2184
0.00040 30.55782 31.3578
0.00042 30.68810 31.4881
0.00044 30.80911 31.6091
0.00046 30.92076 31.7208
0.00048 31.02295 31.823
0.00050 31.11560 31.9156
0.00052 31.19866 31.9987
0.00054 31.27205 32.072
0.00056 31.33573 32.1357
0.00058 31.38965 32.1897
0.00060 31.43378 32.2338
0.00062 31.46809 32.2681
0.00064 31.49256 32.2926
0.00066 31.50719 32.3072
0.00068 31.51199 32.312
0.00070 31.50696 32.307
0.00072 31.49213 32.2921
0.00074 31.46753 32.2675
0.00076 31.43320 32.2332
0.00078 31.38919 32.1892
0.00080 31.33555 32.1355
0.00082 31.27236 32.0724
0.00084 31.19969 31.9997
0.00086 31.11762 31.9176
0.00088 31.02624 31.8262
0.00090 30.92566 31.7257
0.00092 30.81598 31.616
0.00094 30.69731 31.4973
0.00096 30.56978 31.3698
0.00098 30.43352 31.2335
0.00100 30.28866 31.0887
0.00102 30.13537 30.9354
0.00104 29.97377 30.7738
0.00106 29.80404 30.604
0.00108 29.62634 30.4263
0.00110 29.44082 30.2408
0.00112 29.24768 30.0477
0.00114 29.04708 29.8471
0.00116 28.83922 29.6392
0.00118 28.62429 29.4243
0.00120 28.40249 29.2025
0.00122 28.17401 28.974
0.00124 27.93906 28.7391
0.00126 27.69786 28.4979
0.00128 27.45059 28.2506
0.00130 27.19750 27.9975
0.00132 26.93878 27.7388
0.00134 26.67467 27.4747
0.00136 26.40538 27.2054
0.00138 26.13114 26.9311
0.00140 25.85217 26.6522
0.00142 25.56870 26.3687
0.00144 25.28096 26.081
0.00146 24.98918 25.7892
0.00148 24.69359 25.4936
0.00150 24.39441 25.1944
0.00152 24.09189 24.8919
0.00154 23.78625 24.5862
0.00156 23.47771 24.2777
0.00158 23.16651 23.9665
0.00160 22.85287 23.6529
0.00162 22.53703 23.337
0.00164 22.21919 23.0192
0.00166 21.89960 22.6996
0.00168 21.57846 22.3785
0.00170 21.25599 22.056
0.00172 20.93242 21.7324
0.00174 20.60794 21.4079
0.00176 20.28279 21.0828
0.00178 19.95715 20.7571
0.00180 19.63123 20.4312
0.00182 19.30524 20.1052
0.00184 18.97937 19.7794
0.00186 18.65381 19.4538
0.00188 18.32875 19.1288
0.00190 18.00438 18.8044
0.00192 17.68088 18.4809
0.00194 17.35841 18.1584
0.00196 17.03716 17.8372
0.00198 16.71729 17.5173
0.00200 16.39896 17.199
0.00202 16.08233 16.8823
0.00204 15.76755 16.5676
0.00206 15.45477 16.2548
0.00208 15.14414 15.9441
0.00210 14.83578 15.6358
0.00212 14.52983 15.3298
0.00214 14.22642 15.0264
0.00216 13.92567 14.7257
0.00218 13.62769 14.4277
0.00220 13.33260 14.1326
0.00222 13.04051 13.8405
0.00224 12.75151 13.5515
0.00226 12.46569 13.2657
0.00228 12.18316 12.9832
0.00230 11.90400 12.704
0.00232 11.62828 12.4283
0.00234 11.35608 12.1561
0.00236 11.08747 11.8875
0.00238 10.82252 11.6225
0.00240 10.56129 11.3613
0.00242 10.30382 11.1038
0.00244 10.05018 10.8502
0.00246 9.80040 10.6004
0.00248 9.55453 10.3545
0.00250 9.31261 10.1126
0.00252 9.07466 9.87466
0.00254 8.84071 9.64071
0.00256 8.61079 9.41079
0.00258 8.38491 9.18491
0.00260 8.16309 8.96309
0.00262 7.94534 8.74534
0.00264 7.73166 8.53166
0.00266 7.52207 8.32207
0.00268 7.31654 8.11654
0.00270 7.11510 7.9151
0.00272 6.91771 7.71771
0.00274 6.72438 7.52438
0.00276 6.53508 7.33508
0.00278 6.34981 7.14981
0.00280 6.16854 6.96854
0.00282 5.99124 6.79124
0.00284 5.81789 6.61789
0.00286 5.64846 6.44846
0.00288 5.48293 6.28293
0.00290 5.32124 6.12124
0.00292 5.16338 5.96338
0.00294 5.00930 5.8093
0.00296 4.85895 5.65895
0.00298 4.71231 5.51231
0.00300 4.56932 5.36932
0.00302 4.42993 5.22993
0.00304 4.29411 5.09411
0.00306 4.16180 4.9618
0.00308 4.03296 4.83296
0.00310 3.89898 4.69898
0.00312 3.76735 4.56735
0.00314 3.63879 4.43879
0.00316 3.51330 4.3133
0.00318 3.39065 4.19065
0.00320 3.27157 4.07157
0.00322 3.15738 3.95738
0.00324 3.04858 3.84858
0.00326 2.94463 3.74463
0.00328 2.84465 3.64465
0.00330 2.74812 3.54812
0.00332 2.65509 3.45509
0.00334 2.56575 3.36575
0.00336 2.47979 3.27979
0.00338 2.39649 3.19649
0.00340 2.31540 3.1154
0.00342 2.23649 3.03649
0.00344 2.16040 2.9604
0.00346 2.08738 2.88738
0.00348 2.01691 2.81691
0.00350 1.94903 2.74903
0.00352 1.88402 2.68402
0.00354 1.82162 2.62162
0.00356 1.76136 2.56136
0.00358 1.70277 2.50277
0.00360 1.64530 2.4453
0.00362 1.58840 2.3884
0.00364 1.53230 2.3323
0.00366 1.47829 2.27829
0.00368 1.42743 2.22743
0.00370 1.37940 2.1794
0.00372 1.33342 2.13342
0.00374 1.28896 2.08896
0.00376 1.24591 2.04591
0.00378 1.20411 2.00411
0.00380 1.16327 1.96327
0.00382 1.12390 1.9239
0.00384 1.08642 1.88642
0.00386 1.05046 1.85046
0.00388 1.01566 1.81566
0.00390 0.98185 1.78185
0.00392 0.94879 1.74879
0.00394 0.91651 1.71651
0.00396 0.88496 1.68496
0.00398 0.85416 1.65416
0.00400 0.82445 1.62445
0.00402 0.79583 1.59583
0.00404 0.76823 1.56823
0.00406 0.74192 1.54192
0.00408 0.71709 1.51709
0.00410 0.69349 1.49349
0.00412 0.67065 1.47065
0.00414 0.64856 1.44856
0.00416 0.62749 1.42749
0.00418 0.60718 1.40718
0.00420 0.58719 1.38719
0.00422 0.56767 1.36767
0.00424 0.54910 1.3491
0.00426 0.53159 1.33159
0.00428 0.51488 1.31488
0.00430 0.49904 1.29904
0.00432 0.48434 1.28434
0.00434 0.47062 1.27062
0.00436 0.45764 1.25764
0.00438 0.44537 1.24537
0.00440 0.43362 1.23362
0.00442 0.42209 1.22209
0.00444 0.41057 1.21057
0.00446 0.39899 1.19899
0.00448 0.38740 1.1874
0.00450 0.37599 1.17599
0.00452 0.36508 1.16508
0.00454 0.35483 1.15483
0.00456 0.34541 1.14541
0.00458 0.33685 1.13685
0.00460 0.32888 1.12888
0.00462 0.32120 1.1212
0.00464 0.31386 1.11386
0.00466 0.30689 1.10689
0.00468 0.30019 1.10019
0.00470 0.29377 1.09377
0.00472 0.28774 1.08774
0.00474 0.28208 1.08208
0.00476 0.27668 1.07668
0.00478 0.27149 1.07149
0.00480 0.26652 1.06652
0.00482 0.26172 1.06172
0.00484 0.25706 1.05706
0.00486 0.25255 1.05255
0.00488 0.24821 1.04821
0.00490 0.24400 1.044
0.00492 0.23992 1.03992
0.00494 0.23593 1.03593
0.00496 0.23204 1.03204
0.00498 0.22824 1.02824
0.00500 0.22450 1.0245
0.00502 0.22081 1.02081
0.00504 0.21716 1.01716
0.00506 0.21357 1.01357
0.00508 0.21001 1.01001
0.00510 0.20649 1.00649
0.00512 0.20310 1.0031
0.00514 0.19985 0.99985
0.00516 0.19676 0.99676
0.00518 0.19378 0.99378
0.00520 0.19090 0.9909
0.00522 0.18809 0.98809
0.00524 0.18535 0.98535
0.00526 0.18266 0.98266
0.00528 0.18001 0.98001
0.00530 0.17739 0.97739
0.00532 0.17479 0.97479
0.00534 0.17228 0.97228
0.00536 0.16985 0.96985
0.00538 0.16748 0.96748
0.00540 0.16514 0.96514
0.00542 0.16285 0.96285
0.00544 0.16061 0.96061
0.00546 0.15843 0.95843
0.00548 0.15631 0.95631
0.00550 0.15424 0.95424
0.00552 0.15221 0.95221
0.00554 0.15021 0.95021
0.00556 0.14827 0.94827
0.00558 0.14639 0.94639
0.00560 0.14455 0.94455
0.00562 0.14275 0.94275
0.00564 0.14100 0.941
0.00566 0.13929 0.93929
0.00568 0.13763 0.93763
0.00570 0.13599 0.93599
0.00572 0.13439 0.93439
0.00574 0.13283 0.93283
0.00576 0.13131 0.93131
0.00578 0.12982 0.92982
0.00580 0.12836 0.92836
0.00582 0.12692 0.92692
0.00584 0.12550 0.9255
0.00586 0.12409 0.92409
0.00588 0.12270 0.9227
0.00590 0.12132 0.92132
0.00592 0.11997 0.91997
0.00594 0.11864 0.91864
0.00596 0.11735 0.91735
0.00598 0.11610 0.9161
0.00600 0.11488 0.91488
0.00602 0.11369 0.91369
0.00604 0.11252 0.91252
0.00606 0.11137 0.91137
0.00608 0.11023 0.91023
0.00610 0.10913 0.90913
0.00612 0.10805 0.90805
0.00614 0.10700 0.907
0.00616 0.10595 0.90595
0.00618 0.10492 0.90492
0.00620 0.10390 0.9039
0.00622 0.10290 0.9029
0.00624 0.10190 0.9019
0.00626 0.10092 0.90092
0.00628 0.09996 0.89996
0.00630 0.09902 0.89902
0.00632 0.09811 0.89811
0.00634 0.09722 0.89722
0.00636 0.09635 0.89635
0.00638 0.09549 0.89549
0.00640 0.09465 0.89465
0.00642 0.09382 0.89382
0.00644 0.09302 0.89302
0.00646 0.09223 0.89223
0.00648 0.09146 0.89146
0.00650 0.09070 0.8907
0.00652 0.08995 0.88995
0.00654 0.08920 0.8892
0.00656 0.08847 0.88847
0.00658 0.08775 0.88775
0.00660 0.08703 0.88703
0.00662 0.08633 0.88633
0.00664 0.08564 0.88564
0.00666 0.08496 0.88496
0.00668 0.08429 0.88429
0.00670 0.08363 0.88363
0.00672 0.08299 0.88299
0.00674 0.08235 0.88235
0.00676 0.08172 0.88172
0.00678 0.08109 0.88109
0.00680 0.08048 0.88048
0.00682 0.07987 0.87987
0.00684 0.07927 0.87927
0.00686 0.07867 0.87867
0.00688 0.07808 0.87808
0.00690 0.07750 0.8775
0.00692 0.07692 0.87692
0.00694 0.07635 0.87635
0.00696 0.07579 0.87579
0.00698 0.07524 0.87524
0.00700 0.07469 0.87469
0.00702 0.07415 0.87415
0.00704 0.07361 0.87361
0.00706 0.07308 0.87308
0.00708 0.07255 0.87255
0.00710 0.07203 0.87203
0.00712 0.07152 0.87152
0.00714 0.07101 0.87101
0.00716 0.07052 0.87052
0.00718 0.07003 0.87003
0.00720 0.06955 0.86955
0.00722 0.06907 0.86907
0.00724 0.06859 0.86859
0.00726 0.06812 0.86812
0.00728 0.06766 0.86766
0.00730 0.06720 0.8672
0.00732 0.06675 0.86675
0.00734 0.06630 0.8663
0.00736 0.06586 0.86586
0.00738 0.06542 0.86542
0.00740 0.06499 0.86499
0.00742 0.06456 0.86456
0.00744 0.06414 0.86414
0.00746 0.06372 0.86372
0.00748 0.06332 0.86332
0.00750 0.06292 0.86292
0.00752 0.06252 0.86252
0.00754 0.06213 0.86213
0.00756 0.06173 0.86173
0.00758 0.06135 0.86135
0.00760 0.06096 0.86096
0.00762 0.06059 0.86059
0.00764 0.06021 0.86021
0.00766 0.05985 0.85985
0.00768 0.05948 0.85948
0.00770 0.05912 0.85912
0.00772 0.05876 0.85876
0.00774 0.05841 0.85841
0.00776 0.05807 0.85807
0.00778 0.05773 0.85773
0.00780 0.05739 0.85739
0.00782 0.05706 0.85706
0.00784 0.05673 0.85673
0.00786 0.05640 0.8564
0.00788 0.05607 0.85607
0.00790 0.05575 0.85575
0.00792 0.05544 0.85544
0.00794 0.05513 0.85513
0.00796 0.05482 0.85482
0.00798 0.05452 0.85452
0.00800 0.05422 0.85422
0.00802 0.05393 0.85393
0.00804 0.05364 0.85364
0.00806 0.05336 0.85336
0.00808 0.05308 0.85308
0.00810 0.05280 0.8528
0.00812 0.05252 0.85252
0.00814 0.05225 0.85225
0.00816 0.05198 0.85198
0.00818 0.05172 0.85172
0.00820 0.05147 0.85147
0.00822 0.05121 0.85121
0.00824 0.05097 0.85097
0.00826 0.05072 0.85072
0.00828 0.05048 0.85048
0.00830 0.05025 0.85025
0.00832 0.05002 0.85002
0.00834 0.04979 0.84979
0.00836 0.04957 0.84957
0.00838 0.04935 0.84935
0.00840 0.04914 0.84914
0.00842 0.04893 0.84893
0.00844 0.04872 0.84872
0.00846 0.04852 0.84852
0.00848 0.04832 0.84832
0.00850 0.04812 0.84812
0.00852 0.04793 0.84793
0.00854 0.04774 0.84774
0.00856 0.04755 0.84755
0.00858 0.04737 0.84737
0.00860 0.04719 0.84719
0.00862 0.04702 0.84702
0.00864 0.04685 0.84685
0.00866 0.04668 0.84668
0.00868 0.04652 0.84652
0.00870 0.04636 0.84636
0.00872 0.04621 0.84621
0.00874 0.04606 0.84606
0.00876 0.04591 0.84591
0.00878 0.04577 0.84577
0.00880 0.04564 0.84564
0.00882 0.04551 0.84551
0.00884 0.04538 0.84538
0.00886 0.04526 0.84526
0.00888 0.04514 0.84514
0.00890 0.04503 0.84503
0.00892 0.04492 0.84492
0.00894 0.04481 0.84481
0.00896 0.04471 0.84471
0.00898 0.04462 0.84462
0.00900 0.04453 0.84453
0.00902 0.04444 0.84444
0.00904 0.04436 0.84436
0.00906 0.04428 0.84428
0.00908 0.04421 0.84421
0.00910 0.04414 0.84414
0.00912 0.04408 0.84408
0.00914 0.04402 0.84402
0.00916 0.04396 0.84396
0.00918 0.04391 0.84391
0.00920 0.04386 0.84386
0.00922 0.04382 0.84382
0.00924 0.04378 0.84378
0.00926 0.04374 0.84374
0.00928 0.04371 0.84371
0.00930 0.04368 0.84368
0.00932 0.04366 0.84366
0.00934 0.04365 0.84365
0.00936 0.04363 0.84363
0.00938 0.04363 0.84363
0.00940 0.04362 0.84362
0.00942 0.04362 0.84362
0.00944 0.04362 0.84362
0.00946 0.04363 0.84363
0.00948 0.04364 0.84364
0.00950 0.04366 0.84366
0.00952 0.04369 0.84369
0.00954 0.04372 0.84372
0.00956 0.04375 0.84375
0.00958 0.04379 0.84379
0.00960 0.04383 0.84383
0.00962 0.04387 0.84387
0.00964 0.04392 0.84392
0.00966 0.04397 0.84397
0.00968 0.04403 0.84403
0.00970 0.04408 0.84408
0.00972 0.04415 0.84415
0.00974 0.04421 0.84421
0.00976 0.04428 0.84428
0.00978 0.04436 0.84436
0.00980 0.04444 0.84444
0.00982 0.04452 0.84452
0.00984 0.04461 0.84461
0.00986 0.04470 0.8447
0.00988 0.04479 0.84479
0.00990 0.04489 0.84489
0.00992 0.04499 0.84499
0.00994 0.04509 0.84509
0.00996 0.04520 0.8452
0.00998 0.04531 0.84531
0.01000 0.04542 0.84542
0.01002 0.04554 0.84554
0.01004 0.04566 0.84566
0.01006 0.04579 0.84579
0.01008 0.04592 0.84592
0.01010 0.04605 0.84605
0.01012 0.04618 0.84618
0.01014 0.04632 0.84632
0.01016 0.04646 0.84646
0.01018 0.04661 0.84661
0.01020 0.04676 0.84676
0.01022 0.04691 0.84691
0.01024 0.04707 0.84707
0.01026 0.04723 0.84723
0.01028 0.04740 0.8474
0.01030 0.04757 0.84757
0.01032 0.04774 0.84774
0.01034 0.04791 0.84791
0.01036 0.04809 0.84809
0.01038 0.04826 0.84826
0.01040 0.04844 0.84844
0.01042 0.04863 0.84863
0.01044 0.04881 0.84881
0.01046 0.04900 0.849
0.01048 0.04918 0.84918
0.01050 0.04937 0.84937
0.01052 0.04957 0.84957
0.01054 0.04976 0.84976
0.01056 0.04996 0.84996
0.01058 0.05015 0.85015
0.01060 0.05035 0.85035
0.01062 0.05055 0.85055
0.01064 0.05076 0.85076
0.01066 0.05096 0.85096
0.01068 0.05117 0.85117
0.01070 0.05139 0.85139
0.01072 0.05161 0.85161
0.01074 0.05183 0.85183
0.01076 0.05205 0.85205
0.01078 0.05228 0.85228
0.01080 0.05251 0.85251
0.01082 0.05274 0.85274
0.01084 0.05296 0.85296
0.01086 0.05319 0.85319
0.01088 0.05342 0.85342
0.01090 0.05366 0.85366
0.01092 0.05389 0.85389
0.01094 0.05413 0.85413
0.01096 0.05437 0.85437
0.01098 0.05461 0.85461
0.01100 0.05485 0.85485
0.01102 0.05510 0.8551
0.01104 0.05535 0.85535
0.01106 0.05560 0.8556
0.01108 0.05586 0.85586
0.01110 0.05611 0.85611
0.01112 0.05637 0.85637
0.01114 0.05662 0.85662
0.01116 0.05688 0.85688
0.01118 0.05714 0.85714
0.01120 0.05739 0.85739
0.01122 0.05765 0.85765
0.01124 0.05791 0.85791
0.01126 0.05817 0.85817
0.01128 0.05844 0.85844
0.01130 0.05870 0.8587
0.01132 0.05896 0.85896
0.01134 0.05923 0.85923
0.01136 0.05950 0.8595
0.01138 0.05977 0.85977
0.01140 0.06005 0.86005
0.01142 0.06033 0.86033
0.01144 0.06061 0.86061
0.01146 0.06089 0.86089
0.01148 0.06118 0.86118
0.01150 0.06147 0.86147
0.01152 0.06176 0.86176
0.01154 0.06205 0.86205
0.01156 0.06233 0.86233
0.01158 0.06262 0.86262
0.01160 0.06290 0.8629
0.01162 0.06319 0.86319
0.01164 0.06348 0.86348
0.01166 0.06377 0.86377
0.01168 0.06407 0.86407
0.01170 0.06436 0.86436
0.01172 0.06465 0.86465
0.01174 0.06495 0.86495
0.01176 0.06525 0.86525
0.01178 0.06555 0.86555
0.01180 0.06585 0.86585
0.01182 0.06615 0.86615
0.01184 0.06646 0.86646
0.01186 0.06676 0.86676
0.01188 0.06706 0.86706
0.01190 0.06737 0.86737
0.01192 0.06768 0.86768
0.01194 0.06798 0.86798
0.01196 0.06829 0.86829
0.01198 0.06860 0.8686
0.01200 0.06891 0.86891
0.01202 0.06922 0.86922
0.01204 0.06953 0.86953
0.01206 0.06984 0.86984
0.01208 0.07016 0.87016
0.01210 0.07049 0.87049
0.01212 0.07081 0.87081
0.01214 0.07113 0.87113
0.01216 0.07146 0.87146
0.01218 0.07178 0.87178
0.01220 0.07210 0.8721
0.01222 0.07243 0.87243
0.01224 0.07276 0.87276
0.01226 0.07309 0.87309
0.01228 0.07342 0.87342
0.01230 0.07374 0.87374
0.01232 0.07407 0.87407
0.01234 0.07440 0.8744
0.01236 0.07473 0.87473
0.01238 0.07507 0.87507
0.01240 0.07540 0.8754
0.01242 0.07574 0.87574
0.01244 0.07607 0.87607
0.01246 0.07641 0.87641
0.01248 0.07675 0.87675
0.01250 0.07708 0.87708
0.01252 0.07741 0.87741
0.01254 0.07775 0.87775
0.01256 0.07808 0.87808
0.01258 0.07841 0.87841
0.01260 0.07874 0.87874
0.01262 0.07907 0.87907
0.01264 0.07939 0.87939
0.01266 0.07972 0.87972
0.01268 0.08005 0.88005
0.01270 0.08038 0.88038
0.01272 0.08070 0.8807
0.01274 0.08103 0.88103
0.01276 0.08135 0.88135
0.01278 0.08167 0.88167
0.01280 0.08199 0.88199
0.01282 0.08231 0.88231
0.01284 0.08264 0.88264
0.01286 0.08296 0.88296
0.01288 0.08327 0.88327
0.01290 0.08359 0.88359
0.01292 0.08390 0.8839
0.01294 0.08421 0.88421
0.01296 0.08452 0.88452
0.01298 0.08482 0.88482
0.01300 0.08512 0.88512
0.01302 0.08543 0.88543
0.01304 0.08573 0.88573
0.01306 0.08603 0.88603
0.01308 0.08634 0.88634
0.01310 0.08665 0.88665
0.01312 0.08695 0.88695
0.01314 0.08725 0.88725
0.01316 0.08754 0.88754
0.01318 0.08784 0.88784
0.01320 0.08812 0.88812
0.01322 0.08841 0.88841
0.01324 0.08869 0.88869
0.01326 0.08897 0.88897
0.01328 0.08925 0.88925
0.01330 0.08953 0.88953
0.01332 0.08981 0.88981
0.01334 0.09009 0.89009
0.01336 0.09036 0.89036
0.01338 0.09063 0.89063
0.01340 0.09090 0.8909
0.01342 0.09116 0.89116
0.01344 0.09142 0.89142
0.01346 0.09168 0.89168
0.01348 0.09193 0.89193
0.01350 0.09218 0.89218
0.01352 0.09243 0.89243
0.01354 0.09268 0.89268
0.01356 0.09292 0.89292
0.01358 0.09316 0.89316
0.01360 0.09339 0.89339
0.01362 0.09362 0.89362
0.01364 0.09385 0.89385
0.01366 0.09408 0.89408
0.01368 0.09431 0.89431
0.01370 0.09454 0.89454
0.01372 0.09476 0.89476
0.01374 0.09497 0.89497
0.01376 0.09518 0.89518
0.01378 0.09538 0.89538
0.01380 0.09558 0.89558
0.01382 0.09578 0.89578
0.01384 0.09597 0.89597
0.01386 0.09617 0.89617
0.01388 0.09635 0.89635
0.01390 0.09654 0.89654
0.01392 0.09672 0.89672
0.01394 0.09689 0.89689
0.01396 0.09707 0.89707
0.01398 0.09724 0.89724
0.01400 0.09741 0.89741
0.01402 0.09758 0.89758
0.01404 0.09774 0.89774
0.01406 0.09790 0.8979
0.01408 0.09805 0.89805
0.01410 0.09820 0.8982
0.01412 0.09835 0.89835
0.01414 0.09849 0.89849
0.01416 0.09863 0.89863
0.01418 0.09877 0.89877
0.01420 0.09891 0.89891
0.01422 0.09904 0.89904
0.01424 0.09917 0.89917
0.01426 0.09930 0.8993
0.01428 0.09942 0.89942
0.01430 0.09954 0.89954
0.01432 0.09966 0.89966
0.01434 0.09977 0.89977
0.01436 0.09988 0.89988
0.01438 0.09999 0.89999
0.01440 0.10009 0.90009
0.01442 0.10020 0.9002
0.01444 0.10030 0.9003
0.01446 0.10040 0.9004
0.01448 0.10050 0.9005
0.01450 0.10060 0.9006
0.01452 0.10069 0.90069
0.01454 0.10078 0.90078
0.01456 0.10087 0.90087
0.01458 0.10096 0.90096
0.01460 0.10105 0.90105
0.01462 0.10113 0.90113
0.01464 0.10121 0.90121
0.01466 0.10130 0.9013
0.01468 0.10138 0.90138
0.01470 0.10145 0.90145
0.01472 0.10153 0.90153
0.01474 0.10160 0.9016
0.01476 0.10167 0.90167
0.01478 0.10174 0.90174
0.01480 0.10181 0.90181
0.01482 0.10188 0.90188
0.01484 0.10194 0.90194
0.01486 0.10200 0.902
0.01488 0.10206 0.90206
0.01490 0.10211 0.90211
0.01492 0.10217 0.90217
0.01494 0.10222 0.90222
0.01496 0.10227 0.90227
0.01498 0.10232 0.90232
0.01500 0.10236 0.90236
0.01502 0.10240 0.9024
0.01504 0.10244 0.90244
0.01506 0.10248 0.90248
0.01508 0.10251 0.90251
0.01510 0.10255 0.90255
0.01512 0.10258 0.90258
0.01514 0.10261 0.90261
0.01516 0.10264 0.90264
0.01518 0.10267 0.90267
0.01520 0.10269 0.90269
0.01522 0.10272 0.90272
0.01524 0.10274 0.90274
0.01526 0.10276 0.90276
0.01528 0.10278 0.90278
0.01530 0.10279 0.90279
0.01532 0.10281 0.90281
0.01534 0.10282 0.90282
0.01536 0.10283 0.90283
0.01538 0.10285 0.90285
0.01540 0.10286 0.90286
0.01542 0.10288 0.90288
0.01544 0.10289 0.90289
0.01546 0.10289 0.90289
0.01548 0.10290 0.9029
0.01550 0.10290 0.9029
0.01552 0.10290 0.9029
0.01554 0.10290 0.9029
0.01556 0.10289 0.90289
0.01558 0.10289 0.90289
0.01560 0.10288 0.90288
0.01562 0.10288 0.90288
0.01564 0.10287 0.90287
0.01566 0.10286 0.90286
0.01568 0.10285 0.90285
0.01570 0.10284 0.90284
0.01572 0.10283 0.90283
0.01574 0.10281 0.90281
0.01576 0.10279 0.90279
0.01578 0.10277 0.90277
0.01580 0.10275 0.90275
0.01582 0.10272 0.90272
0.01584 0.10269 0.90269
0.01586 0.10266 0.90266
0.01588 0.10263 0.90263
0.01590 0.10260 0.9026
0.01592 0.10256 0.90256
0.01594 0.10253 0.90253
0.01596 0.10249 0.90249
0.01598 0.10246 0.90246
0.01600 0.10242 0.90242
0.01602 0.10238 0.90238
0.01604 0.10234 0.90234
0.01606 0.10229 0.90229
0.01608 0.10225 0.90225
0.01610 0.10220 0.9022
0.01612 0.10216 0.90216
0.01614 0.10211 0.90211
0.01616 0.10207 0.90207
0.01618 0.10202 0.90202
0.01620 0.10197 0.90197
0.01622 0.10192 0.90192
0.01624 0.10187 0.90187
0.01626 0.10182 0.90182
0.01628 0.10176 0.90176
0.01630 0.10170 0.9017
0.01632 0.10164 0.90164
0.01634 0.10159 0.90159
0.01636 0.10153 0.90153
0.01638 0.10148 0.90148
0.01640 0.10143 0.90143
0.01642 0.10137 0.90137
0.01644 0.10131 0.90131
0.01646 0.10125 0.90125
0.01648 0.10119 0.90119
0.01650 0.10112 0.90112
0.01652 0.10106 0.90106
0.01654 0.10100 0.901
0.01656 0.10095 0.90095
0.01658 0.10089 0.90089
