# XXZ spin chain 
# MCLM for L=32, Delta=0.975
# High-T spin conductivity sigma(omega)
# omega/J sigma(omega) sigma(omega){rescaled} 

0.00008 6.45288 6.50288
0.00010 6.52190 6.5719
0.00012 6.58948 6.63948
0.00014 6.65557 6.70557
0.00016 6.72011 6.77011
0.00018 6.78304 6.83304
0.00020 6.84433 6.89433
0.00022 6.90391 6.95391
0.00024 6.96172 7.01172
0.00026 7.01774 7.06774
0.00028 7.07189 7.12189
0.00030 7.12415 7.17415
0.00032 7.17447 7.22447
0.00034 7.22281 7.27281
0.00036 7.26911 7.31911
0.00038 7.31336 7.36336
0.00040 7.35550 7.4055
0.00042 7.39550 7.4455
0.00044 7.43333 7.48333
0.00046 7.46897 7.51897
0.00048 7.50237 7.55237
0.00050 7.53352 7.58352
0.00052 7.56238 7.61238
0.00054 7.58894 7.63894
0.00056 7.61317 7.66317
0.00058 7.63506 7.68506
0.00060 7.65459 7.70459
0.00062 7.67175 7.72175
0.00064 7.68652 7.73652
0.00066 7.69890 7.7489
0.00068 7.70888 7.75888
0.00070 7.71645 7.76645
0.00072 7.72161 7.77161
0.00074 7.72437 7.77437
0.00076 7.72471 7.77471
0.00078 7.72266 7.77266
0.00080 7.71821 7.76821
0.00082 7.71137 7.76137
0.00084 7.70216 7.75216
0.00086 7.69059 7.74059
0.00088 7.67667 7.72667
0.00090 7.66042 7.71042
0.00092 7.64187 7.69187
0.00094 7.62103 7.67103
0.00096 7.59793 7.64793
0.00098 7.57259 7.62259
0.00100 7.54504 7.59504
0.00102 7.51532 7.56532
0.00104 7.48346 7.53346
0.00106 7.44948 7.49948
0.00108 7.41342 7.46342
0.00110 7.37532 7.42532
0.00112 7.33522 7.38522
0.00114 7.29316 7.34316
0.00116 7.24917 7.29917
0.00118 7.20331 7.25331
0.00120 7.15561 7.20561
0.00122 7.10613 7.15613
0.00124 7.05490 7.1049
0.00126 7.00198 7.05198
0.00128 6.94741 6.99741
0.00130 6.89125 6.94125
0.00132 6.83355 6.88355
0.00134 6.77435 6.82435
0.00136 6.71371 6.76371
0.00138 6.65169 6.70169
0.00140 6.58833 6.63833
0.00142 6.52370 6.5737
0.00144 6.45784 6.50784
0.00146 6.39081 6.44081
0.00148 6.32267 6.37267
0.00150 6.25347 6.30347
0.00152 6.18326 6.23326
0.00154 6.11212 6.16212
0.00156 6.04008 6.09008
0.00158 5.96721 6.01721
0.00160 5.89356 5.94356
0.00162 5.81919 5.86919
0.00164 5.74416 5.79416
0.00166 5.66851 5.71851
0.00168 5.59231 5.64231
0.00170 5.51561 5.56561
0.00172 5.43845 5.48845
0.00174 5.36091 5.41091
0.00176 5.28302 5.33302
0.00178 5.20484 5.25484
0.00180 5.12642 5.17642
0.00182 5.04782 5.09782
0.00184 4.96907 5.01907
0.00186 4.89024 4.94024
0.00188 4.81137 4.86137
0.00190 4.73251 4.78251
0.00192 4.65370 4.7037
0.00194 4.57499 4.62499
0.00196 4.49642 4.54642
0.00198 4.41804 4.46804
0.00200 4.33989 4.38989
0.00202 4.26201 4.31201
0.00204 4.18444 4.23444
0.00206 4.10722 4.15722
0.00208 4.03039 4.08039
0.00210 3.95398 4.00398
0.00212 3.87803 3.92803
0.00214 3.80258 3.85258
0.00216 3.72764 3.77764
0.00218 3.65327 3.70327
0.00220 3.57949 3.62949
0.00222 3.50632 3.55632
0.00224 3.43379 3.48379
0.00226 3.36194 3.41194
0.00228 3.29079 3.34079
0.00230 3.22036 3.27036
0.00232 3.15067 3.20067
0.00234 3.08174 3.13174
0.00236 3.01360 3.0636
0.00238 2.94627 2.99627
0.00240 2.87976 2.92976
0.00242 2.81409 2.86409
0.00244 2.74927 2.79927
0.00246 2.68532 2.73532
0.00248 2.62226 2.67226
0.00250 2.56009 2.61009
0.00252 2.49883 2.54883
0.00254 2.43848 2.48848
0.00256 2.37906 2.42906
0.00258 2.32057 2.37057
0.00260 2.26302 2.31302
0.00262 2.20642 2.25642
0.00264 2.15076 2.20076
0.00266 2.09606 2.14606
0.00268 2.04232 2.09232
0.00270 1.98953 2.03953
0.00272 1.93770 1.9877
0.00274 1.88684 1.93684
0.00276 1.83693 1.88693
0.00278 1.78798 1.83798
0.00280 1.73999 1.78999
0.00282 1.69295 1.74295
0.00284 1.64686 1.69686
0.00286 1.60172 1.65172
0.00288 1.55751 1.60751
0.00290 1.51424 1.56424
0.00292 1.47190 1.5219
0.00294 1.43048 1.48048
0.00296 1.38998 1.43998
0.00298 1.35038 1.40038
0.00300 1.31168 1.36168
0.00302 1.27388 1.32388
0.00304 1.23695 1.28695
0.00306 1.20089 1.25089
0.00308 1.16570 1.2157
0.00310 1.12973 1.17973
0.00312 1.09469 1.14469
0.00314 1.06053 1.11053
0.00316 1.02723 1.07723
0.00318 0.99492 1.04492
0.00320 0.96358 1.01358
0.00322 0.93305 0.98305
0.00324 0.90317 0.95317
0.00326 0.87392 0.92392
0.00328 0.84554 0.89554
0.00330 0.81818 0.86818
0.00332 0.79170 0.8417
0.00334 0.76594 0.81594
0.00336 0.74082 0.79082
0.00338 0.71651 0.76651
0.00340 0.69312 0.74312
0.00342 0.67059 0.72059
0.00344 0.64884 0.69884
0.00346 0.62787 0.67787
0.00348 0.60766 0.65766
0.00350 0.58807 0.63807
0.00352 0.56900 0.619
0.00354 0.55041 0.60041
0.00356 0.53226 0.58226
0.00358 0.51457 0.56457
0.00360 0.49737 0.54737
0.00362 0.48055 0.53055
0.00364 0.46404 0.51404
0.00366 0.44794 0.49794
0.00368 0.43244 0.48244
0.00370 0.41771 0.46771
0.00372 0.40364 0.45364
0.00374 0.39011 0.44011
0.00376 0.37697 0.42697
0.00378 0.36411 0.41411
0.00380 0.35149 0.40149
0.00382 0.33929 0.38929
0.00384 0.32773 0.37773
0.00386 0.31671 0.36671
0.00388 0.30615 0.35615
0.00390 0.29605 0.34605
0.00392 0.28635 0.33635
0.00394 0.27695 0.32695
0.00396 0.26781 0.31781
0.00398 0.25880 0.3088
0.00400 0.24989 0.29989
0.00402 0.24130 0.2913
0.00404 0.23310 0.2831
0.00406 0.22526 0.27526
0.00408 0.21767 0.26767
0.00410 0.21035 0.26035
0.00412 0.20344 0.25344
0.00414 0.19690 0.2469
0.00416 0.19058 0.24058
0.00418 0.18438 0.23438
0.00420 0.17828 0.22828
0.00422 0.17227 0.22227
0.00424 0.16645 0.21645
0.00426 0.16097 0.21097
0.00428 0.15583 0.20583
0.00430 0.15099 0.20099
0.00432 0.14644 0.19644
0.00434 0.14217 0.19217
0.00436 0.13811 0.18811
0.00438 0.13417 0.18417
0.00440 0.13035 0.18035
0.00442 0.12663 0.17663
0.00444 0.12304 0.17304
0.00446 0.11958 0.16958
0.00448 0.11627 0.16627
0.00450 0.11311 0.16311
0.00452 0.11011 0.16011
0.00454 0.10722 0.15722
0.00456 0.10436 0.15436
0.00458 0.10156 0.15156
0.00460 0.09889 0.14889
0.00462 0.09637 0.14637
0.00464 0.09399 0.14399
0.00466 0.09173 0.14173
0.00468 0.08954 0.13954
0.00470 0.08745 0.13745
0.00472 0.08545 0.13545
0.00474 0.08354 0.13354
0.00476 0.08168 0.13168
0.00478 0.07987 0.12987
0.00480 0.07809 0.12809
0.00482 0.07638 0.12638
0.00484 0.07474 0.12474
0.00486 0.07319 0.12319
0.00488 0.07173 0.12173
0.00490 0.07033 0.12033
0.00492 0.06897 0.11897
0.00494 0.06764 0.11764
0.00496 0.06633 0.11633
0.00498 0.06506 0.11506
0.00500 0.06382 0.11382
0.00502 0.06264 0.11264
0.00504 0.06150 0.1115
0.00506 0.06037 0.11037
0.00508 0.05923 0.10923
0.00510 0.05812 0.10812
0.00512 0.05707 0.10707
0.00514 0.05607 0.10607
0.00516 0.05508 0.10508
0.00518 0.05411 0.10411
0.00520 0.05318 0.10318
0.00522 0.05229 0.10229
0.00524 0.05147 0.10147
0.00526 0.05069 0.10069
0.00528 0.04995 0.09995
0.00530 0.04923 0.09923
0.00532 0.04853 0.09853
0.00534 0.04786 0.09786
0.00536 0.04719 0.09719
0.00538 0.04654 0.09654
0.00540 0.04591 0.09591
0.00542 0.04530 0.0953
0.00544 0.04471 0.09471
0.00546 0.04415 0.09415
0.00548 0.04359 0.09359
0.00550 0.04305 0.09305
0.00552 0.04252 0.09252
0.00554 0.04201 0.09201
0.00556 0.04151 0.09151
0.00558 0.04103 0.09103
0.00560 0.04055 0.09055
0.00562 0.04007 0.09007
0.00564 0.03961 0.08961
0.00566 0.03915 0.08915
0.00568 0.03869 0.08869
0.00570 0.03823 0.08823
0.00572 0.03778 0.08778
0.00574 0.03735 0.08735
0.00576 0.03692 0.08692
0.00578 0.03650 0.0865
0.00580 0.03609 0.08609
0.00582 0.03568 0.08568
0.00584 0.03528 0.08528
0.00586 0.03489 0.08489
0.00588 0.03450 0.0845
0.00590 0.03412 0.08412
0.00592 0.03374 0.08374
0.00594 0.03338 0.08338
0.00596 0.03302 0.08302
0.00598 0.03267 0.08267
0.00600 0.03232 0.08232
0.00602 0.03198 0.08198
0.00604 0.03165 0.08165
0.00606 0.03132 0.08132
0.00608 0.03099 0.08099
0.00610 0.03066 0.08066
0.00612 0.03034 0.08034
0.00614 0.03003 0.08003
0.00616 0.02973 0.07973
0.00618 0.02943 0.07943
0.00620 0.02913 0.07913
0.00622 0.02884 0.07884
0.00624 0.02855 0.07855
0.00626 0.02827 0.07827
0.00628 0.02800 0.078
0.00630 0.02772 0.07772
0.00632 0.02746 0.07746
0.00634 0.02719 0.07719
0.00636 0.02693 0.07693
0.00638 0.02667 0.07667
0.00640 0.02641 0.07641
0.00642 0.02616 0.07616
0.00644 0.02591 0.07591
0.00646 0.02567 0.07567
0.00648 0.02542 0.07542
0.00650 0.02518 0.07518
0.00652 0.02494 0.07494
0.00654 0.02471 0.07471
0.00656 0.02447 0.07447
0.00658 0.02424 0.07424
0.00660 0.02402 0.07402
0.00662 0.02379 0.07379
0.00664 0.02357 0.07357
0.00666 0.02335 0.07335
0.00668 0.02313 0.07313
0.00670 0.02292 0.07292
0.00672 0.02271 0.07271
0.00674 0.02250 0.0725
0.00676 0.02229 0.07229
0.00678 0.02209 0.07209
0.00680 0.02189 0.07189
0.00682 0.02169 0.07169
0.00684 0.02150 0.0715
0.00686 0.02131 0.07131
0.00688 0.02112 0.07112
0.00690 0.02094 0.07094
0.00692 0.02075 0.07075
0.00694 0.02057 0.07057
0.00696 0.02039 0.07039
0.00698 0.02021 0.07021
0.00700 0.02004 0.07004
0.00702 0.01986 0.06986
0.00704 0.01969 0.06969
0.00706 0.01952 0.06952
0.00708 0.01935 0.06935
0.00710 0.01918 0.06918
0.00712 0.01902 0.06902
0.00714 0.01886 0.06886
0.00716 0.01870 0.0687
0.00718 0.01855 0.06855
0.00720 0.01839 0.06839
0.00722 0.01824 0.06824
0.00724 0.01809 0.06809
0.00726 0.01795 0.06795
0.00728 0.01780 0.0678
0.00730 0.01766 0.06766
0.00732 0.01752 0.06752
0.00734 0.01738 0.06738
0.00736 0.01724 0.06724
0.00738 0.01711 0.06711
0.00740 0.01697 0.06697
0.00742 0.01684 0.06684
0.00744 0.01671 0.06671
0.00746 0.01658 0.06658
0.00748 0.01646 0.06646
0.00750 0.01633 0.06633
0.00752 0.01621 0.06621
0.00754 0.01609 0.06609
0.00756 0.01597 0.06597
0.00758 0.01586 0.06586
0.00760 0.01574 0.06574
0.00762 0.01563 0.06563
0.00764 0.01551 0.06551
0.00766 0.01540 0.0654
0.00768 0.01529 0.06529
0.00770 0.01519 0.06519
0.00772 0.01508 0.06508
0.00774 0.01497 0.06497
0.00776 0.01487 0.06487
0.00778 0.01477 0.06477
0.00780 0.01467 0.06467
0.00782 0.01458 0.06458
0.00784 0.01448 0.06448
0.00786 0.01439 0.06439
0.00788 0.01430 0.0643
0.00790 0.01421 0.06421
0.00792 0.01412 0.06412
0.00794 0.01403 0.06403
0.00796 0.01395 0.06395
0.00798 0.01386 0.06386
0.00800 0.01378 0.06378
0.00802 0.01370 0.0637
0.00804 0.01361 0.06361
0.00806 0.01353 0.06353
0.00808 0.01346 0.06346
0.00810 0.01338 0.06338
0.00812 0.01330 0.0633
0.00814 0.01323 0.06323
0.00816 0.01315 0.06315
0.00818 0.01308 0.06308
0.00820 0.01300 0.063
0.00822 0.01293 0.06293
0.00824 0.01286 0.06286
0.00826 0.01279 0.06279
0.00828 0.01272 0.06272
0.00830 0.01265 0.06265
0.00832 0.01258 0.06258
0.00834 0.01252 0.06252
0.00836 0.01245 0.06245
0.00838 0.01239 0.06239
0.00840 0.01232 0.06232
0.00842 0.01226 0.06226
0.00844 0.01220 0.0622
0.00846 0.01214 0.06214
0.00848 0.01207 0.06207
0.00850 0.01202 0.06202
0.00852 0.01196 0.06196
0.00854 0.01190 0.0619
0.00856 0.01184 0.06184
0.00858 0.01179 0.06179
0.00860 0.01173 0.06173
0.00862 0.01167 0.06167
0.00864 0.01162 0.06162
0.00866 0.01157 0.06157
0.00868 0.01151 0.06151
0.00870 0.01146 0.06146
0.00872 0.01141 0.06141
0.00874 0.01136 0.06136
0.00876 0.01131 0.06131
0.00878 0.01125 0.06125
0.00880 0.01120 0.0612
0.00882 0.01115 0.06115
0.00884 0.01110 0.0611
0.00886 0.01105 0.06105
0.00888 0.01101 0.06101
0.00890 0.01096 0.06096
0.00892 0.01091 0.06091
0.00894 0.01086 0.06086
0.00896 0.01082 0.06082
0.00898 0.01077 0.06077
0.00900 0.01072 0.06072
0.00902 0.01067 0.06067
0.00904 0.01063 0.06063
0.00906 0.01058 0.06058
0.00908 0.01053 0.06053
0.00910 0.01049 0.06049
0.00912 0.01044 0.06044
0.00914 0.01040 0.0604
0.00916 0.01035 0.06035
0.00918 0.01031 0.06031
0.00920 0.01026 0.06026
0.00922 0.01022 0.06022
0.00924 0.01018 0.06018
0.00926 0.01013 0.06013
0.00928 0.01009 0.06009
0.00930 0.01005 0.06005
0.00932 0.01001 0.06001
0.00934 0.00996 0.05996
0.00936 0.00992 0.05992
0.00938 0.00988 0.05988
0.00940 0.00984 0.05984
0.00942 0.00980 0.0598
0.00944 0.00976 0.05976
0.00946 0.00971 0.05971
0.00948 0.00967 0.05967
0.00950 0.00963 0.05963
0.00952 0.00959 0.05959
0.00954 0.00955 0.05955
0.00956 0.00951 0.05951
0.00958 0.00947 0.05947
0.00960 0.00942 0.05942
0.00962 0.00938 0.05938
0.00964 0.00934 0.05934
0.00966 0.00930 0.0593
0.00968 0.00926 0.05926
0.00970 0.00922 0.05922
0.00972 0.00918 0.05918
0.00974 0.00914 0.05914
0.00976 0.00910 0.0591
0.00978 0.00906 0.05906
0.00980 0.00902 0.05902
0.00982 0.00898 0.05898
0.00984 0.00894 0.05894
0.00986 0.00890 0.0589
0.00988 0.00886 0.05886
0.00990 0.00883 0.05883
0.00992 0.00879 0.05879
0.00994 0.00875 0.05875
0.00996 0.00871 0.05871
0.00998 0.00867 0.05867
0.01000 0.00863 0.05863
0.01002 0.00859 0.05859
0.01004 0.00856 0.05856
0.01006 0.00852 0.05852
0.01008 0.00848 0.05848
0.01010 0.00844 0.05844
0.01012 0.00841 0.05841
0.01014 0.00837 0.05837
0.01016 0.00833 0.05833
0.01018 0.00830 0.0583
0.01020 0.00826 0.05826
0.01022 0.00823 0.05823
0.01024 0.00819 0.05819
0.01026 0.00815 0.05815
0.01028 0.00812 0.05812
0.01030 0.00808 0.05808
0.01032 0.00805 0.05805
0.01034 0.00802 0.05802
0.01036 0.00798 0.05798
0.01038 0.00795 0.05795
0.01040 0.00791 0.05791
0.01042 0.00788 0.05788
0.01044 0.00785 0.05785
0.01046 0.00781 0.05781
0.01048 0.00778 0.05778
0.01050 0.00775 0.05775
0.01052 0.00772 0.05772
0.01054 0.00769 0.05769
0.01056 0.00765 0.05765
0.01058 0.00762 0.05762
0.01060 0.00759 0.05759
0.01062 0.00756 0.05756
0.01064 0.00753 0.05753
0.01066 0.00750 0.0575
0.01068 0.00747 0.05747
0.01070 0.00744 0.05744
0.01072 0.00742 0.05742
0.01074 0.00739 0.05739
0.01076 0.00736 0.05736
0.01078 0.00733 0.05733
0.01080 0.00730 0.0573
0.01082 0.00728 0.05728
0.01084 0.00725 0.05725
0.01086 0.00722 0.05722
0.01088 0.00720 0.0572
0.01090 0.00717 0.05717
0.01092 0.00715 0.05715
0.01094 0.00712 0.05712
0.01096 0.00710 0.0571
0.01098 0.00708 0.05708
0.01100 0.00705 0.05705
0.01102 0.00703 0.05703
0.01104 0.00701 0.05701
0.01106 0.00698 0.05698
0.01108 0.00696 0.05696
0.01110 0.00694 0.05694
0.01112 0.00692 0.05692
0.01114 0.00690 0.0569
0.01116 0.00688 0.05688
0.01118 0.00686 0.05686
0.01120 0.00684 0.05684
0.01122 0.00682 0.05682
0.01124 0.00680 0.0568
0.01126 0.00678 0.05678
0.01128 0.00676 0.05676
0.01130 0.00674 0.05674
0.01132 0.00672 0.05672
0.01134 0.00671 0.05671
0.01136 0.00669 0.05669
0.01138 0.00667 0.05667
0.01140 0.00666 0.05666
0.01142 0.00664 0.05664
0.01144 0.00662 0.05662
0.01146 0.00661 0.05661
0.01148 0.00659 0.05659
0.01150 0.00658 0.05658
0.01152 0.00656 0.05656
0.01154 0.00655 0.05655
0.01156 0.00653 0.05653
0.01158 0.00652 0.05652
0.01160 0.00650 0.0565
0.01162 0.00649 0.05649
0.01164 0.00648 0.05648
0.01166 0.00646 0.05646
0.01168 0.00645 0.05645
0.01170 0.00644 0.05644
0.01172 0.00643 0.05643
0.01174 0.00641 0.05641
0.01176 0.00640 0.0564
0.01178 0.00639 0.05639
0.01180 0.00638 0.05638
0.01182 0.00637 0.05637
0.01184 0.00635 0.05635
0.01186 0.00634 0.05634
0.01188 0.00633 0.05633
0.01190 0.00632 0.05632
0.01192 0.00631 0.05631
0.01194 0.00630 0.0563
0.01196 0.00629 0.05629
0.01198 0.00628 0.05628
0.01200 0.00627 0.05627
0.01202 0.00626 0.05626
0.01204 0.00625 0.05625
0.01206 0.00624 0.05624
0.01208 0.00623 0.05623
0.01210 0.00622 0.05622
0.01212 0.00621 0.05621
0.01214 0.00620 0.0562
0.01216 0.00619 0.05619
0.01218 0.00618 0.05618
0.01220 0.00617 0.05617
0.01222 0.00616 0.05616
0.01224 0.00615 0.05615
0.01226 0.00614 0.05614
0.01228 0.00613 0.05613
0.01230 0.00612 0.05612
0.01232 0.00611 0.05611
0.01234 0.00610 0.0561
0.01236 0.00609 0.05609
0.01238 0.00608 0.05608
0.01240 0.00607 0.05607
0.01242 0.00606 0.05606
0.01244 0.00605 0.05605
0.01246 0.00604 0.05604
0.01248 0.00603 0.05603
0.01250 0.00602 0.05602
0.01252 0.00601 0.05601
0.01254 0.00600 0.056
0.01256 0.00599 0.05599
0.01258 0.00599 0.05599
0.01260 0.00598 0.05598
0.01262 0.00597 0.05597
0.01264 0.00596 0.05596
0.01266 0.00595 0.05595
0.01268 0.00594 0.05594
0.01270 0.00593 0.05593
0.01272 0.00592 0.05592
0.01274 0.00591 0.05591
0.01276 0.00590 0.0559
0.01278 0.00589 0.05589
0.01280 0.00588 0.05588
0.01282 0.00587 0.05587
0.01284 0.00586 0.05586
0.01286 0.00585 0.05585
0.01288 0.00584 0.05584
0.01290 0.00583 0.05583
0.01292 0.00582 0.05582
0.01294 0.00581 0.05581
0.01296 0.00580 0.0558
0.01298 0.00579 0.05579
0.01300 0.00578 0.05578
0.01302 0.00577 0.05577
0.01304 0.00576 0.05576
0.01306 0.00575 0.05575
0.01308 0.00574 0.05574
0.01310 0.00573 0.05573
0.01312 0.00571 0.05571
0.01314 0.00570 0.0557
0.01316 0.00569 0.05569
0.01318 0.00568 0.05568
0.01320 0.00567 0.05567
0.01322 0.00566 0.05566
0.01324 0.00565 0.05565
0.01326 0.00564 0.05564
0.01328 0.00563 0.05563
0.01330 0.00562 0.05562
0.01332 0.00561 0.05561
0.01334 0.00560 0.0556
0.01336 0.00559 0.05559
0.01338 0.00558 0.05558
0.01340 0.00556 0.05556
0.01342 0.00555 0.05555
0.01344 0.00554 0.05554
0.01346 0.00553 0.05553
0.01348 0.00552 0.05552
0.01350 0.00551 0.05551
0.01352 0.00550 0.0555
0.01354 0.00549 0.05549
0.01356 0.00548 0.05548
0.01358 0.00547 0.05547
0.01360 0.00546 0.05546
0.01362 0.00545 0.05545
0.01364 0.00544 0.05544
0.01366 0.00543 0.05543
0.01368 0.00542 0.05542
0.01370 0.00541 0.05541
0.01372 0.00540 0.0554
0.01374 0.00539 0.05539
0.01376 0.00538 0.05538
0.01378 0.00537 0.05537
0.01380 0.00536 0.05536
0.01382 0.00535 0.05535
0.01384 0.00534 0.05534
0.01386 0.00533 0.05533
0.01388 0.00532 0.05532
0.01390 0.00531 0.05531
0.01392 0.00530 0.0553
0.01394 0.00529 0.05529
0.01396 0.00529 0.05529
0.01398 0.00528 0.05528
0.01400 0.00527 0.05527
0.01402 0.00526 0.05526
0.01404 0.00525 0.05525
0.01406 0.00524 0.05524
0.01408 0.00523 0.05523
0.01410 0.00522 0.05522
0.01412 0.00522 0.05522
0.01414 0.00521 0.05521
0.01416 0.00520 0.0552
0.01418 0.00519 0.05519
0.01420 0.00518 0.05518
0.01422 0.00518 0.05518
0.01424 0.00517 0.05517
0.01426 0.00516 0.05516
0.01428 0.00515 0.05515
0.01430 0.00515 0.05515
0.01432 0.00514 0.05514
0.01434 0.00513 0.05513
0.01436 0.00513 0.05513
0.01438 0.00512 0.05512
0.01440 0.00511 0.05511
0.01442 0.00511 0.05511
0.01444 0.00510 0.0551
0.01446 0.00510 0.0551
0.01448 0.00509 0.05509
0.01450 0.00509 0.05509
0.01452 0.00508 0.05508
0.01454 0.00507 0.05507
0.01456 0.00507 0.05507
0.01458 0.00506 0.05506
0.01460 0.00506 0.05506
0.01462 0.00505 0.05505
0.01464 0.00505 0.05505
0.01466 0.00504 0.05504
0.01468 0.00504 0.05504
0.01470 0.00503 0.05503
0.01472 0.00503 0.05503
0.01474 0.00503 0.05503
0.01476 0.00502 0.05502
0.01478 0.00502 0.05502
0.01480 0.00501 0.05501
0.01482 0.00501 0.05501
0.01484 0.00501 0.05501
0.01486 0.00500 0.055
0.01488 0.00500 0.055
0.01490 0.00500 0.055
0.01492 0.00499 0.05499
0.01494 0.00499 0.05499
0.01496 0.00499 0.05499
0.01498 0.00498 0.05498
0.01500 0.00498 0.05498
0.01502 0.00498 0.05498
0.01504 0.00498 0.05498
0.01506 0.00497 0.05497
0.01508 0.00497 0.05497
0.01510 0.00497 0.05497
0.01512 0.00497 0.05497
0.01514 0.00497 0.05497
0.01516 0.00496 0.05496
0.01518 0.00496 0.05496
0.01520 0.00496 0.05496
0.01522 0.00496 0.05496
0.01524 0.00496 0.05496
0.01526 0.00496 0.05496
0.01528 0.00495 0.05495
0.01530 0.00495 0.05495
0.01532 0.00495 0.05495
0.01534 0.00495 0.05495
0.01536 0.00495 0.05495
0.01538 0.00495 0.05495
0.01540 0.00495 0.05495
0.01542 0.00495 0.05495
0.01544 0.00494 0.05494
0.01546 0.00494 0.05494
0.01548 0.00494 0.05494
0.01550 0.00494 0.05494
0.01552 0.00494 0.05494
0.01554 0.00494 0.05494
0.01556 0.00494 0.05494
0.01558 0.00494 0.05494
0.01560 0.00494 0.05494
0.01562 0.00494 0.05494
0.01564 0.00494 0.05494
0.01566 0.00494 0.05494
0.01568 0.00494 0.05494
0.01570 0.00494 0.05494
0.01572 0.00494 0.05494
0.01574 0.00494 0.05494
0.01576 0.00494 0.05494
0.01578 0.00494 0.05494
0.01580 0.00494 0.05494
0.01582 0.00494 0.05494
0.01584 0.00494 0.05494
0.01586 0.00494 0.05494
0.01588 0.00494 0.05494
0.01590 0.00494 0.05494
0.01592 0.00494 0.05494
0.01594 0.00494 0.05494
0.01596 0.00494 0.05494
0.01598 0.00494 0.05494
0.01600 0.00494 0.05494
0.01602 0.00494 0.05494
0.01604 0.00494 0.05494
0.01606 0.00494 0.05494
0.01608 0.00494 0.05494
0.01610 0.00494 0.05494
0.01612 0.00494 0.05494
0.01614 0.00494 0.05494
0.01616 0.00494 0.05494
0.01618 0.00494 0.05494
0.01620 0.00494 0.05494
0.01622 0.00493 0.05493
0.01624 0.00493 0.05493
0.01626 0.00493 0.05493
0.01628 0.00493 0.05493
0.01630 0.00493 0.05493
0.01632 0.00493 0.05493
0.01634 0.00493 0.05493
0.01636 0.00493 0.05493
0.01638 0.00493 0.05493
0.01640 0.00493 0.05493
0.01642 0.00493 0.05493
0.01644 0.00493 0.05493
0.01646 0.00493 0.05493
0.01648 0.00493 0.05493
0.01650 0.00493 0.05493
0.01652 0.00493 0.05493
0.01654 0.00493 0.05493
0.01656 0.00493 0.05493
0.01658 0.00493 0.05493
0.01660 0.00493 0.05493
0.01662 0.00493 0.05493
0.01664 0.00493 0.05493
0.01666 0.00492 0.05492
