# XXZ chain with NNN perturbation
# L = 16, full Hilbert space, J = 1, Delta = 1.0, g = 0.05
# Normalized cumlative spectral function for the O1 operator
# omega, R_1(omega)

4.961947603002903606e-01 9.994881666318088387e-01
4.774520538566129346e-01 9.994443622183953879e-01
4.594173134636476141e-01 9.993969601950689619e-01
4.420637972028532148e-01 9.993450087040840479e-01
4.253657732750387721e-01 9.992860296153863731e-01
4.092984818452440332e-01 9.992217896258396292e-01
3.938380983288489179e-01 9.991525240657204154e-01
3.789616980644718303e-01 9.990784970787409680e-01
3.646472223212748887e-01 9.989943948608309698e-01
3.508734455902713378e-01 9.989052692478691542e-01
3.376199441111340516e-01 9.988083383019173978e-01
3.248670655878376778e-01 9.987082292498218328e-01
3.125959000482280703e-01 9.986026707855929496e-01
3.007882518043100695e-01 9.984937475438904197e-01
2.894266124716751709e-01 9.983782572407956524e-01
2.784941350080645805e-01 9.982495502861682413e-01
2.679746087325692305e-01 9.981193235250448437e-01
2.578524352884274951e-01 9.979826505479354459e-01
2.481126055137770070e-01 9.978351502701532372e-01
2.387406771860647314e-01 9.976913388910692015e-01
2.297227536071152210e-01 9.975385323642658175e-01
2.210454629971021490e-01 9.973766999246945764e-01
2.126959386668690888e-01 9.972119394121640168e-01
2.046617999391990017e-01 9.970494044767880260e-01
1.969311337907422854e-01 9.968825200493234284e-01
1.894924771873821578e-01 9.967109039564215900e-01
1.823348000868441343e-01 9.965370479689428240e-01
1.754474890833459533e-01 9.963571229253036510e-01
1.688203316700363499e-01 9.961824224834001651e-01
1.624435010958867054e-01 9.959884998922123867e-01
1.563075417945816725e-01 9.957935934539765555e-01
1.504033553638025045e-01 9.955898754217900049e-01
1.447221870741135230e-01 9.953754183362689689e-01
1.392556128874463395e-01 9.951624666594758306e-01
1.339955269659339199e-01 9.949409864707063900e-01
1.289341296525715608e-01 9.947111893099256363e-01
1.240639159058832403e-01 9.944716684879404411e-01
1.193776641714437009e-01 9.942187583174999510e-01
1.148684256737554227e-01 9.939499806516776115e-01
1.105295141126022146e-01 9.936864681483653650e-01
1.063544957486011189e-01 9.933974860986611866e-01
1.023371798632519702e-01 9.931149886461737575e-01
9.847160957933774605e-02 9.928072667158783782e-01
9.475205302806546936e-02 9.924863827844048192e-01
9.117299484984922597e-02 9.921818662972415881e-01
8.772912801613363953e-02 9.918567895852054006e-01
8.441534596012983949e-02 9.915104348026981818e-01
8.122673500479719866e-02 9.911745242981347959e-01
7.815856707684090687e-02 9.908216201691227853e-01
7.520629269592414567e-02 9.904279640450424083e-01
7.236553422869657082e-02 9.900504731585672014e-01
6.963207939763883803e-02 9.896521436557927931e-01
6.700187503509590081e-02 9.892183938702427959e-01
6.447102107323869624e-02 9.888234354831080264e-01
6.203576476104274290e-02 9.884138403082719515e-01
5.969249509970733780e-02 9.879774186252273660e-01
5.743773748826586784e-02 9.875193538510391722e-01
5.526814857144603244e-02 9.870696990638784252e-01
5.318051128214202478e-02 9.866210969008327725e-01
5.117173007114604599e-02 9.860365021236847660e-01
4.923882631706741342e-02 9.852799455141073581e-01
4.737893390963143769e-02 9.843221803988384533e-01
4.558929499981063949e-02 9.832599045124885695e-01
4.386725591048498685e-02 9.818450663610474027e-01
4.221026320156903017e-02 9.797397408952569497e-01
4.061585988376979761e-02 9.768998022592891850e-01
3.908168177536268384e-02 9.737429327811896185e-01
3.760545399658171695e-02 9.701543791898628033e-01
3.618498759642750640e-02 9.658304385056739605e-01
3.481817630688966575e-02 9.611816641351635937e-01
3.350299341977233669e-02 9.563010680103432026e-01
3.223748878149030467e-02 9.493541985766611457e-01
3.101978590138097097e-02 9.423615740730671986e-01
2.984807916924327523e-02 9.347832530290494102e-01
2.872063117797828483e-02 9.256820308309388068e-01
2.763577014736159909e-02 9.157551113874176085e-01
2.659188744512694033e-02 9.049731415524450151e-01
2.558743520168589233e-02 8.945343840902199029e-01
2.462092401494625840e-02 8.837109729203281860e-01
2.369092074182634414e-02 8.714941250620761304e-01
2.279604637318979887e-02 8.585473765567738225e-01
2.193497398905060181e-02 8.437369112104833313e-01
2.110642679101554578e-02 8.304890935992460532e-01
2.030917620904736792e-02 8.170276941354631672e-01
1.954204007974053373e-02 8.020817853411454923e-01
1.880388089340916460e-02 7.880938607760848980e-01
1.809360410738716438e-02 7.726813850858303967e-01
1.741015652304017322e-02 7.588091289330259892e-01
1.675252472408215315e-02 7.431502116825532411e-01
1.611973357388158529e-02 7.275002987156262702e-01
1.551084476952840734e-02 7.133012115185842772e-01
1.492495545051830512e-02 6.999725237230078889e-01
1.436119685999078660e-02 6.840464739945265604e-01
1.381873305653632047e-02 6.685329884913973064e-01
1.329675967466212479e-02 6.523613282150730885e-01
1.279450273207873370e-02 6.352771400347974051e-01
1.231121748203890809e-02 6.198518877707634989e-01
1.184618730902683471e-02 6.052770089993229075e-01
1.139872266616052607e-02 5.895305666603559702e-01
1.096816005273137939e-02 5.744880804012403308e-01
1.055386103036524102e-02 5.602309539564729324e-01
1.015521127634568151e-02 5.442638783222674137e-01
9.771619672696182229e-03 5.307718790512897522e-01
9.402517429670131932e-03 5.173922880976098426e-01
9.047357242349302747e-03 5.033266369056854650e-01
8.705612479099865408e-03 4.916791694516312039e-01
8.376776400682925047e-03 4.814976559539463907e-01
8.060361408861346083e-03 4.710487521778461972e-01
7.755898323389008933e-03 4.602762099703516241e-01
7.462935686310137595e-03 4.501977159310324161e-01
7.181039092537355555e-03 4.413610477673471921e-01
6.909790545715645271e-03 4.307570211703432017e-01
6.648787838417269391e-03 4.205041835358727109e-01
6.397643955748430651e-03 4.114086760029330159e-01
6.155986501483514013e-03 4.010606848941554170e-01
5.923457145875806254e-03 3.914500090401695775e-01
5.699711094326075263e-03 3.821305354911245789e-01
5.484416576121020452e-03 3.709309445742637878e-01
5.277254352483537470e-03 3.609091817701343130e-01
5.077917243205404101e-03 3.489747434579069107e-01
4.886109671160326559e-03 3.382865598602712853e-01
4.701547224022134541e-03 3.286373887913957015e-01
4.523956232538053034e-03 3.161138500939050244e-01
4.353073364731892096e-03 3.029006515269714872e-01
4.188645235435271494e-03 2.921381270390644991e-01
4.030428030568054994e-03 2.789534160863710865e-01
3.878187145610723519e-03 2.659425030142695268e-01
3.731696837732756053e-03 2.547239956651305981e-01
3.590739891061055147e-03 2.414955784271954897e-01
3.455107294592221507e-03 2.274777025717323875e-01
3.324597932270941750e-03 2.170000152257380022e-01
3.199018284775066896e-03 2.041666649437882952e-01
3.078182142565080021e-03 1.947695151237376077e-01
2.961910329772556374e-03 1.836767103305342874e-01
2.850030438518108469e-03 1.732544519663986871e-01
2.742376573264952364e-03 1.626610306465824940e-01
2.638789104828934487e-03 1.541006124219619910e-01
2.539114433680347144e-03 1.453828649629775038e-01
2.443204762186489305e-03 1.371702337711734054e-01
2.350917875457286636e-03 1.313839835833026937e-01
2.262116930469026694e-03 1.266606608737204098e-01
2.176670253153459040e-03 1.183450197966327000e-01
2.094451143151470924e-03 1.117816343653405958e-01
2.015337685941733393e-03 1.064640602084398063e-01
1.939212572065830958e-03 1.001575312702128046e-01
1.865962923181745982e-03 9.557246336623509420e-02
1.795480124687832231e-03 9.076261380245190247e-02
1.727659664669036485e-03 8.707794418559379468e-02
1.662400978926613674e-03 8.268239278618129406e-02
1.599607301861487915e-03 7.884292302183920631e-02
1.539185522990207120e-03 7.426001854322289430e-02
1.481046048880675517e-03 7.081873224934069622e-02
1.425102670302999227e-03 6.782705652819480402e-02
1.371272434398400917e-03 6.516194722759870162e-02
1.319475521676707333e-03 6.262979395164260110e-02
1.269635127659974033e-03 6.051109052201770339e-02
1.221677348996793059e-03 5.825285136611629833e-02
1.175531073878369843e-03 5.548673280551889853e-02
1.131127876593921366e-03 5.302341989281839779e-02
1.088401916069006584e-03 5.106734426383319897e-02
1.047289838236358439e-03 4.884432012487219948e-02
1.007730682094461726e-03 4.678783978789059772e-02
9.696657893145520669e-04 4.484015807422459671e-02
9.330387172620359729e-04 4.250661654608300227e-02
8.977951553033331877e-04 4.077061125109800177e-02
8.638828442740453762e-04 3.942571277707909716e-02
8.312514989890631501e-04 3.758931425513990093e-02
7.998527336796707127e-04 3.630032328642530254e-02
7.696399902471166409e-04 3.481095602089959856e-02
7.405684692262441650e-04 3.355560307839729889e-02
7.125950633568410445e-04 3.243352905275619785e-02
6.856782936641738196e-04 3.137963631766999689e-02
6.597782479539546479e-04 3.029391194797489972e-02
6.348565216305223540e-04 2.924872300202420103e-02
6.108761607505039425e-04 2.788102573769559930e-02
5.878016072274911547e-04 2.651820548019739876e-02
5.655986461065013642e-04 2.550567270396009861e-02
5.442343548300272249e-04 2.380940768622179932e-02
5.236770544204654831e-04 2.294925338667419892e-02
5.038962625065149942e-04 2.217509223877390037e-02
4.848626481239078079e-04 2.137334270764909908e-02
4.665479882234477250e-04 2.022764755893939961e-02
4.489251258218607721e-04 1.944464679241160107e-02
4.319679297334173764e-04 1.818952881608959862e-02
4.156512558225987906e-04 1.782421816591929845e-02
3.999509097203669534e-04 1.714544286096100073e-02
3.848436109487432576e-04 1.647440603131860096e-02
3.703069584005141035e-04 1.615721832264320132e-02
3.563193971228584300e-04 1.528631854731630005e-02
3.428601863556590473e-04 1.481747205934129917e-02
3.299093687770942316e-04 1.416457179443929987e-02
3.174477409109193664e-04 1.378002849008779993e-02
3.054568246515431892e-04 1.341988399027320075e-02
2.939188398646890260e-04 1.298756144632880020e-02
2.828166780230034890e-04 1.245138430819149947e-02
2.721338768375308921e-04 1.181156294397250027e-02
2.618545958474232716e-04 1.134900187491369970e-02
2.519635929317018516e-04 1.110317195172830056e-02
2.424462017082330725e-04 1.070587981356740069e-02
2.332883097864158189e-04 1.022360427957979927e-02
2.244763378413223921e-04 9.910612154473299670e-03
2.159972194782717103e-04 9.185204060866499973e-03
2.078383818579759422e-04 8.899253376736899687e-03
1.999877270535287046e-04 8.693724395482799183e-03
1.924336141115980190e-04 8.435973624661100012e-03
1.851648417912154056e-04 8.142447115281899184e-03
1.781706319545732628e-04 7.746602242202999845e-03
1.714406135851972166e-04 7.456321732943699786e-03
1.649648074098020503e-04 7.314151522868599618e-03
1.587336111010208468e-04 7.086691382389200163e-03
1.527377850390715483e-04 6.849106399532000136e-03
1.469684386112447426e-04 6.511878848455499892e-03
1.414170170289023951e-04 6.415748433428200212e-03
1.360752886424333198e-04 5.995154379609299658e-03
1.309353327353612287e-04 5.723977348184900067e-03
1.259895277795028434e-04 5.523909286150399840e-03
1.212305401337652864e-04 5.360892433965199627e-03
1.166513131698196175e-04 5.298715053688799782e-03
1.122450568085308140e-04 5.142152862380700365e-03
1.080052374516253993e-04 4.940114742105299744e-03
1.039255682936713091e-04 4.811072060348299713e-03
1.000000000000000048e-04 4.646403448177099937e-03
1.000000000000000082e-05 4.247136722496000190e-04
9.999999999999999547e-07 7.521203000557035931e-05
9.999999999999999547e-08 1.525878906250230393e-05
