# XXZ model at half-filling
# L=28, J=1, Delta=0.10
# Dynamical spin conductivity, sigma_s(omega) via MCLM
# omega sigma_s(omega)

0 176.921
0.0005 158.271
0.001 113.316
0.0015 64.9499
0.002 29.8289
0.0025 11.0057
0.003 3.29152
0.0035 0.82721
0.004 0.205801
0.0045 0.0839252
0.005 0.0720937
0.0055 0.0828625
0.006 0.0992126
0.0065 0.117271
0.007 0.136412
0.0075 0.157672
0.008 0.182258
0.0085 0.210243
0.009 0.240564
0.0095 0.271839
0.01 0.303019
0.0105 0.333878
0.011 0.365469
0.0115 0.399878
0.012 0.438925
0.0125 0.483164
0.013 0.532373
0.0135 0.58618
0.014 0.642682
0.0145 0.696365
0.015 0.739907
0.0155 0.770445
0.016 0.792957
0.0165 0.815464
0.017 0.842461
0.0175 0.875269
0.018 0.916771
0.0185 0.971332
0.019 1.03858
0.0195 1.11044
0.02 1.17807
0.0205 1.24146
0.021 1.30999
0.0215 1.39317
0.022 1.49119
0.0225 1.59455
0.023 1.6934
0.0235 1.78617
0.024 1.8772
0.0245 1.969
0.025 2.06107
0.0255 2.15244
0.026 2.2376
0.0265 2.30088
0.027 2.32346
0.0275 2.29969
0.028 2.24309
0.0285 2.17482
0.029 2.10832
0.0295 2.04495
0.03 1.98037
0.0305 1.9126
0.031 1.84418
0.0315 1.77756
0.032 1.71045
0.0325 1.6369
0.033 1.55275
0.0335 1.46036
0.034 1.36861
0.0345 1.2877
0.035 1.22389
0.0355 1.17837
0.036 1.14784
0.0365 1.12464
0.037 1.10002
0.0375 1.07053
0.038 1.04063
0.0385 1.01692
0.039 0.999667
0.0395 0.980608
0.04 0.949473
0.0405 0.903836
0.041 0.852432
0.0415 0.808
0.042 0.7788
0.0425 0.768509
0.043 0.779039
0.0435 0.805965
0.044 0.831848
0.0445 0.833507
0.045 0.802027
0.0455 0.750802
0.046 0.700164
0.0465 0.659955
0.047 0.628958
0.0475 0.60276
0.048 0.57766
0.0485 0.551685
0.049 0.526137
0.0495 0.506291
0.05 0.500043
0.0505 0.514832
0.051 0.5522
0.0515 0.601881
0.052 0.643096
0.0525 0.656224
0.053 0.634826
0.0535 0.587602
0.054 0.53206
0.0545 0.486812
0.055 0.465317
0.0555 0.470083
0.056 0.488478
0.0565 0.497698
0.057 0.481464
0.0575 0.443299
0.058 0.400919
0.0585 0.369745
0.059 0.353966
0.0595 0.34883
0.06 0.346249
0.0605 0.339428
0.061 0.326024
0.0615 0.308466
0.062 0.291128
0.0625 0.276818
0.063 0.265547
0.0635 0.256278
0.064 0.249331
0.0645 0.24653
0.065 0.24911
0.0655 0.256056
0.066 0.264159
0.0665 0.268797
0.067 0.265475
0.0675 0.253063
0.068 0.235846
0.0685 0.220249
0.069 0.209016
0.0695 0.200069
0.07 0.190975
0.0705 0.182375
0.071 0.176392
0.0715 0.173505
0.072 0.17213
0.0725 0.17036
0.073 0.167248
0.0735 0.162797
0.074 0.157431
0.0745 0.151739
0.075 0.146424
0.0755 0.142166
0.076 0.139397
0.0765 0.138129
0.077 0.137841
0.0775 0.137503
0.078 0.135981
0.0785 0.132755
0.079 0.128371
0.0795 0.124016
0.08 0.120534
0.0805 0.117901
0.081 0.115638
0.0815 0.113432
0.082 0.111062
0.0825 0.108115
0.083 0.104442
0.0835 0.100705
0.084 0.0977604
0.0845 0.0955989
0.085 0.0935394
0.0855 0.0914075
0.086 0.0898847
0.0865 0.0895744
0.087 0.0901738
0.0875 0.0907383
0.088 0.0904667
0.0885 0.0891136
0.089 0.0869599
0.0895 0.0846161
0.09 0.0826216
0.0905 0.0810028
0.091 0.0793667
0.0915 0.0775005
0.092 0.0756093
0.0925 0.0739136
0.093 0.0723305
0.0935 0.0706485
0.094 0.0688383
0.0945 0.0671614
0.095 0.0660094
0.0955 0.0655658
0.096 0.0656129
0.0965 0.0657178
0.097 0.0655643
0.0975 0.0650728
0.098 0.0643283
0.0985 0.0634896
0.099 0.0627146
0.0995 0.0621433
0.1 0.0620697
0.1005 0.0631829
0.101 0.0663413
0.1015 0.0715048
0.102 0.0766681
0.1025 0.0786193
0.103 0.0756596
0.1035 0.069352
0.104 0.063047
0.1045 0.059097
0.105 0.057795
0.1055 0.0581595
0.106 0.0589854
0.1065 0.0594471
0.107 0.0592716
0.1075 0.0585542
0.108 0.057507
0.1085 0.0563676
0.109 0.0553237
0.1095 0.0543949
0.11 0.0534647
0.1105 0.0524634
0.111 0.0514598
0.1115 0.0505616
0.112 0.049796
0.1125 0.0491261
0.113 0.0485162
0.1135 0.0479158
0.114 0.0472523
0.1145 0.0465357
0.115 0.0459103
0.1155 0.0455037
0.116 0.0452591
0.1165 0.0449949
0.117 0.0446193
0.1175 0.044248
0.118 0.0441109
0.1185 0.0443459
0.119 0.0448548
0.1195 0.0453552
0.12 0.0456232
0.1205 0.0457191
0.121 0.0459308
0.1215 0.0464364
0.122 0.0470246
0.1225 0.0471916
0.123 0.0465742
0.1235 0.0453243
0.124 0.0440194
0.1245 0.043188
0.125 0.0429695
0.1255 0.0431787
0.126 0.0435409
0.1265 0.0438248
0.127 0.0438559
0.1275 0.0435267
0.128 0.0428523
0.1285 0.0419625
0.129 0.0409917
0.1295 0.040035
0.13 0.039238
0.1305 0.0388339
0.131 0.0390178
0.1315 0.0397636
0.132 0.0407515
0.1325 0.0415331
0.133 0.0418713
0.1335 0.0419044
0.134 0.0419085
0.1345 0.0419601
0.135 0.0419132
0.1355 0.0416416
0.136 0.0412036
0.1365 0.0407838
0.137 0.0405437
0.1375 0.0405276
0.138 0.0406603
0.1385 0.0408157
0.139 0.0408897
0.1395 0.0408079
0.14 0.0405165
0.1405 0.0400578
0.141 0.0396167
0.1415 0.0393649
0.142 0.0392613
0.1425 0.0391143
0.143 0.0388293
0.1435 0.0384986
0.144 0.0382616
0.1445 0.0381659
0.145 0.0381886
0.1455 0.0383372
0.146 0.0386673
0.1465 0.0391659
0.147 0.0396354
0.1475 0.0397709
0.148 0.0394044
0.1485 0.0386537
0.149 0.037817
0.1495 0.0371642
0.15 0.0368195
0.1505 0.0367642
0.151 0.0369071
0.1515 0.0371478
0.152 0.0373734
0.1525 0.037436
0.153 0.0372163
0.1535 0.0367326
0.154 0.0361288
0.1545 0.0355367
0.155 0.03501
0.1555 0.0345746
0.156 0.0342581
0.1565 0.0340828
0.157 0.0340843
0.1575 0.0342831
0.158 0.0345894
0.1585 0.034809
0.159 0.0347843
0.1595 0.0344962
0.16 0.0340407
0.1605 0.0335509
0.161 0.0331113
0.1615 0.0326993
0.162 0.0322377
0.1625 0.0317306
0.163 0.0313237
0.1635 0.0311859
0.164 0.0313324
0.1645 0.0315946
0.165 0.0317624
0.1655 0.0317258
0.166 0.0315021
0.1665 0.0311888
0.167 0.0309
0.1675 0.0306935
0.168 0.0305392
0.1685 0.0303959
0.169 0.0303022
0.1695 0.0303308
0.17 0.0304611
0.1705 0.030558
0.171 0.0304804
0.1715 0.0301851
0.172 0.0297435
0.1725 0.0293001
0.173 0.0290079
0.1735 0.0289526
0.174 0.0290911
0.1745 0.0292641
0.175 0.0292987
0.1755 0.0291366
0.176 0.0288881
0.1765 0.0287461
0.177 0.0288205
0.1775 0.0290573
0.178 0.0293184
0.1785 0.0295071
0.179 0.0296034
0.1795 0.0296167
0.18 0.0295455
0.1805 0.0293802
0.181 0.0291099
0.1815 0.0287333
0.182 0.028315
0.1825 0.0280142
0.183 0.0279757
0.1835 0.028174
0.184 0.0284135
0.1845 0.0284962
0.185 0.0283798
0.1855 0.0281835
0.186 0.0280597
0.1865 0.0280824
0.187 0.0282652
0.1875 0.0286158
0.188 0.0290954
0.1885 0.0295541
0.189 0.029794
0.1895 0.0297249
0.19 0.0294266
0.1905 0.0290476
0.191 0.028671
0.1915 0.0282915
0.192 0.0278911
0.1925 0.0274895
0.193 0.0271244
0.1935 0.0268184
0.194 0.0265688
0.1945 0.0263475
0.195 0.0261236
0.1955 0.0258995
0.196 0.0257088
0.1965 0.0255644
0.197 0.0254303
0.1975 0.0252644
0.198 0.0250839
0.1985 0.0249763
0.199 0.0250407
0.1995 0.0253124
0.2 0.0257121
0.2005 0.026045
0.201 0.0260926
0.2015 0.0257891
0.202 0.0253003
0.2025 0.0248658
0.203 0.0245752
0.2035 0.0243449
0.204 0.024085
0.2045 0.0238131
0.205 0.0235955
0.2055 0.0234364
0.206 0.0232716
0.2065 0.0230609
0.207 0.022849
0.2075 0.0227172
0.208 0.022688
0.2085 0.0226905
0.209 0.0226128
0.2095 0.0223848
0.21 0.0220244
0.2105 0.0216283
0.211 0.0213178
0.2115 0.0211764
0.212 0.021217
0.2125 0.0213935
0.213 0.0216449
0.2135 0.0219306
0.214 0.0222217
0.2145 0.0224697
0.215 0.0226049
0.2155 0.0225816
0.216 0.0224228
0.2165 0.0222074
0.217 0.0220121
0.2175 0.0218767
0.218 0.0218143
0.2185 0.0218175
0.219 0.0218444
0.2195 0.0218302
0.22 0.0217428
0.2205 0.0216183
0.221 0.0215193
0.2215 0.0214726
0.222 0.021471
0.2225 0.0215192
0.223 0.0216337
0.2235 0.0217925
0.224 0.0219189
0.2245 0.0219448
0.225 0.0218861
0.2255 0.0218283
0.226 0.0218211
0.2265 0.0218051
0.227 0.0216711
0.2275 0.0213816
0.228 0.0210119
0.2285 0.0206839
0.229 0.0204768
0.2295 0.0203904
0.23 0.0203723
0.2305 0.0203708
0.231 0.0203669
0.2315 0.0203724
0.232 0.020411
0.2325 0.0204937
0.233 0.020596
0.2335 0.0206593
0.234 0.0206376
0.2345 0.02055
0.235 0.0204722
0.2355 0.0204547
0.236 0.0204528
0.2365 0.0203577
0.237 0.0200983
0.2375 0.0197069
0.238 0.0192959
0.2385 0.0189841
0.239 0.0188334
0.2395 0.0188293
0.24 0.018905
0.2405 0.0189822
0.241 0.0189985
0.2415 0.018924
0.242 0.0187728
0.2425 0.0186052
0.243 0.0184985
0.2435 0.0184948
0.244 0.0185681
0.2445 0.0186423
0.245 0.0186445
0.2455 0.0185469
0.246 0.0183773
0.2465 0.018202
0.247 0.0180944
0.2475 0.0181
0.248 0.0182074
0.2485 0.0183444
0.249 0.0184157
0.2495 0.0183675
0.25 0.0182297
0.2505 0.0180861
0.251 0.0179881
0.2515 0.0179055
0.252 0.0177835
0.2525 0.0176263
0.253 0.017485
0.2535 0.0173835
0.254 0.017304
0.2545 0.0172302
0.255 0.0171624
0.2555 0.0170936
0.256 0.017001
0.2565 0.0168649
0.257 0.0166962
0.2575 0.016543
0.258 0.0164593
0.2585 0.0164507
0.259 0.0164569
0.2595 0.0164018
0.26 0.0162625
0.2605 0.0160892
0.261 0.0159633
0.2615 0.0159323
0.262 0.015971
0.2625 0.0160081
0.263 0.0159896
0.2635 0.0159096
0.264 0.0157833
0.2645 0.0156214
0.265 0.0154395
0.2655 0.015266
0.266 0.0151267
0.2665 0.0150327
0.267 0.0149846
0.2675 0.0149745
0.268 0.0149915
0.2685 0.0150347
0.269 0.0151082
0.2695 0.0151866
0.27 0.0152047
0.2705 0.0151104
0.271 0.0149261
0.2715 0.0147344
0.272 0.0146004
0.2725 0.0145214
0.273 0.0144517
0.2735 0.0143609
0.274 0.0142662
0.2745 0.0142165
0.275 0.0142457
0.2755 0.0143367
0.276 0.0144288
0.2765 0.0144608
0.277 0.0144119
0.2775 0.0143087
0.278 0.0142013
0.2785 0.0141298
0.279 0.0141056
0.2795 0.014114
0.28 0.0141303
0.2805 0.0141353
0.281 0.014122
0.2815 0.0141021
0.282 0.0141064
0.2825 0.0141619
0.283 0.014244
0.2835 0.014265
0.284 0.014143
0.2845 0.0138932
0.285 0.0136255
0.2855 0.0134432
0.286 0.0133696
0.2865 0.0133697
0.287 0.0134003
0.2875 0.0134166
0.288 0.0133692
0.2885 0.0132419
0.289 0.0130838
0.2895 0.0129726
0.29 0.0129462
0.2905 0.0129807
0.291 0.0130163
0.2915 0.0129918
0.292 0.0128782
0.2925 0.0127004
0.293 0.0125207
0.2935 0.0123966
0.294 0.0123514
0.2945 0.0123665
0.295 0.0123905
0.2955 0.012372
0.296 0.0123023
0.2965 0.0122229
0.297 0.0121798
0.2975 0.0121737
0.298 0.0121617
0.2985 0.0121059
0.299 0.0120143
0.2995 0.0119348
0.3 0.0119081
0.3005 0.0119221
0.301 0.0119145
0.3015 0.0118266
0.302 0.0116569
0.3025 0.0114712
0.303 0.0113856
0.3035 0.0115286
0.304 0.0119481
0.3045 0.0125047
0.305 0.0129082
0.3055 0.0129415
0.306 0.012641
0.3065 0.0122188
0.307 0.0118487
0.3075 0.0115774
0.308 0.0113943
0.3085 0.0113102
0.309 0.0113537
0.3095 0.011514
0.31 0.0117088
0.3105 0.011822
0.311 0.0117864
0.3115 0.011627
0.312 0.0114239
0.3125 0.011245
0.313 0.0111118
0.3135 0.0110122
0.314 0.0109323
0.3145 0.0108763
0.315 0.0108589
0.3155 0.0108848
0.316 0.0109405
0.3165 0.0110077
0.317 0.0110712
0.3175 0.0111067
0.318 0.0110767
0.3185 0.0109599
0.319 0.0107817
0.3195 0.010599
0.32 0.0104537
0.3205 0.0103445
0.321 0.0102451
0.3215 0.0101456
0.322 0.0100664
0.3225 0.0100325
0.323 0.0100451
0.3235 0.0100846
0.324 0.010132
0.3245 0.0101752
0.325 0.0101995
0.3255 0.0101912
0.326 0.0101538
0.3265 0.0101096
0.327 0.0100807
0.3275 0.0100707
0.328 0.0100635
0.3285 0.0100331
0.329 0.00995992
0.3295 0.00985047
0.33 0.00974053
0.3305 0.00966882
0.331 0.0096424
0.3315 0.00963231
0.332 0.00960978
0.3325 0.00958337
0.333 0.00958833
0.3335 0.00963686
0.334 0.00968998
0.3345 0.00968758
0.335 0.00960508
0.3355 0.00947412
0.336 0.00934846
0.3365 0.00925852
0.337 0.00919961
0.3375 0.00915141
0.338 0.00909941
0.3385 0.00904073
0.339 0.00897852
0.3395 0.00891561
0.34 0.00884805
0.3405 0.00875982
0.341 0.00863166
0.3415 0.00846528
0.342 0.00829451
0.3425 0.00816391
0.343 0.00809824
0.3435 0.00809359
0.344 0.00812828
0.3445 0.0081782
0.345 0.00823094
0.3455 0.00829004
0.346 0.00836016
0.3465 0.00842608
0.347 0.00845252
0.3475 0.00841036
0.348 0.0083007
0.3485 0.00814918
0.349 0.00798281
0.3495 0.00782084
0.35 0.00768051
0.3505 0.00757636
0.351 0.00751242
0.3515 0.00748385
0.352 0.00748673
0.3525 0.00751865
0.353 0.00756789
0.3535 0.0076092
0.354 0.00761819
0.3545 0.00759147
0.355 0.00755065
0.3555 0.00752429
0.356 0.00752438
0.3565 0.00753743
0.357 0.00753671
0.3575 0.00750437
0.358 0.00744217
0.3585 0.00736359
0.359 0.00728252
0.3595 0.00721048
0.36 0.00715663
0.3605 0.00712524
0.361 0.00711313
0.3615 0.00711019
0.362 0.00710497
0.3625 0.00709345
0.363 0.00707972
0.3635 0.00706476
0.364 0.00703922
0.3645 0.00699332
0.365 0.00693212
0.3655 0.00687525
0.366 0.0068393
0.3665 0.00682303
0.367 0.00681148
0.3675 0.00679218
0.368 0.00676833
0.3685 0.0067599
0.369 0.00678741
0.3695 0.00684841
0.37 0.00691519
0.3705 0.00696215
0.371 0.0069866
0.3715 0.00699313
0.372 0.00697069
0.3725 0.00690597
0.373 0.00681301
0.3735 0.00672864
0.374 0.00667906
0.3745 0.0066634
0.375 0.00666682
0.3755 0.00667609
0.376 0.00667998
0.3765 0.00666595
0.377 0.00662844
0.3775 0.00658002
0.378 0.00654316
0.3785 0.00652534
0.379 0.00650939
0.3795 0.00647449
0.38 0.00642047
0.3805 0.00636454
0.381 0.00631871
0.3815 0.00627862
0.382 0.00623445
0.3825 0.00618644
0.383 0.00614542
0.3835 0.00612016
0.384 0.00610892
0.3845 0.00610334
0.385 0.00609518
0.3855 0.00607719
0.386 0.00604194
0.3865 0.00598679
0.387 0.00592264
0.3875 0.0058732
0.388 0.00585805
0.3885 0.00587525
0.389 0.00590334
0.3895 0.00592024
0.39 0.00591812
0.3905 0.00590311
0.391 0.00588673
0.3915 0.00587706
0.392 0.00587281
0.3925 0.00586485
0.393 0.00584314
0.3935 0.00580168
0.394 0.00574175
0.3945 0.00567588
0.395 0.00562293
0.3955 0.00559095
0.396 0.00556846
0.3965 0.00554036
0.397 0.00551543
0.3975 0.00553917
0.398 0.0056713
0.3985 0.00592342
0.399 0.0062034
0.3995 0.00635389
0.4 0.00628527
0.4005 0.0060583
0.401 0.00581495
0.4015 0.00565349
0.402 0.00558575
0.4025 0.00557437
0.403 0.00557501
0.4035 0.00555677
0.404 0.00551233
0.4045 0.00545866
0.405 0.00542295
0.4055 0.00542207
0.406 0.00545309
0.4065 0.00550308
0.407 0.00556508
0.4075 0.0056395
0.408 0.00572046
0.4085 0.00578904
0.409 0.00582532
0.4095 0.00582276
0.41 0.0057894
0.4105 0.00574174
0.411 0.00569874
0.4115 0.00567477
0.412 0.00567202
0.4125 0.00567648
0.413 0.00566354
0.4135 0.00561801
0.414 0.00555398
0.4145 0.00550699
0.415 0.00549835
0.4155 0.00551019
0.416 0.00550323
0.4165 0.00545932
0.417 0.00539913
0.4175 0.00535645
0.418 0.00534329
0.4185 0.00534388
0.419 0.00533577
0.4195 0.00530988
0.42 0.00527187
0.4205 0.00523167
0.421 0.0051971
0.4215 0.00517485
0.422 0.00516873
0.4225 0.00517181
0.423 0.00516629
0.4235 0.00513931
0.424 0.00509874
0.4245 0.00506828
0.425 0.00506501
0.4255 0.00508205
0.426 0.00509496
0.4265 0.00508605
0.427 0.00505941
0.4275 0.0050305
0.428 0.00500541
0.4285 0.00497503
0.429 0.00492822
0.4295 0.00486466
0.43 0.00479329
0.4305 0.00472401
0.431 0.00466484
0.4315 0.0046219
0.432 0.00459581
0.4325 0.0045808
0.433 0.00457237
0.4335 0.00457304
0.434 0.00458484
0.4345 0.00459743
0.435 0.00459038
0.4355 0.00455061
0.436 0.00448545
0.4365 0.00441633
0.437 0.00436124
0.4375 0.00432542
0.438 0.00430555
0.4385 0.00429488
0.439 0.00428321
0.4395 0.00425945
0.44 0.00422012
0.4405 0.0041746
0.441 0.00413997
0.4415 0.0041284
0.442 0.00413766
0.4425 0.00415462
0.443 0.00416793
0.4435 0.00417441
0.444 0.00417459
0.4445 0.0041679
0.445 0.00415286
0.4455 0.00412711
0.446 0.00408842
0.4465 0.00404152
0.447 0.00400144
0.4475 0.00398276
0.448 0.00398581
0.4485 0.00399769
0.449 0.00400474
0.4495 0.00400059
0.45 0.00398528
0.4505 0.00396203
0.451 0.00393525
0.4515 0.00390967
0.452 0.00389005
0.4525 0.00387922
0.453 0.00387393
0.4535 0.0038656
0.454 0.00385053
0.4545 0.00383694
0.455 0.00383563
0.4555 0.00384521
0.456 0.00385244
0.4565 0.00384737
0.457 0.00383414
0.4575 0.00382587
0.458 0.00383133
0.4585 0.00384783
0.459 0.00386553
0.4595 0.0038754
0.46 0.00387154
0.4605 0.00384965
0.461 0.00381051
0.4615 0.00376569
0.462 0.00373386
0.4625 0.00372584
0.463 0.00373296
0.4635 0.00373355
0.464 0.00371534
0.4645 0.00368979
0.465 0.00367748
0.4655 0.00368006
0.466 0.00367657
0.4665 0.00364977
0.467 0.00360597
0.4675 0.00356425
0.468 0.00353655
0.4685 0.00352504
0.469 0.00352953
0.4695 0.00354584
0.47 0.00356095
0.4705 0.00355956
0.471 0.00353634
0.4715 0.00349777
0.472 0.00345359
0.4725 0.00340954
0.473 0.00336764
0.4735 0.00333037
0.474 0.00330164
0.4745 0.00328287
0.475 0.00327023
0.4755 0.00325735
0.476 0.00324098
0.4765 0.00322461
0.477 0.00321599
0.4775 0.00321878
0.478 0.00322724
0.4785 0.00323138
0.479 0.00322663
0.4795 0.00321645
0.48 0.00320748
0.4805 0.00320487
0.481 0.00321132
0.4815 0.00322803
0.482 0.00325442
0.4825 0.00328496
0.483 0.00330762
0.4835 0.00331033
0.484 0.00329113
0.4845 0.00326001
0.485 0.00322902
0.4855 0.00320174
0.486 0.0031738
0.4865 0.00314285
0.487 0.00311407
0.4875 0.00309419
0.488 0.00308292
0.4885 0.00307363
0.489 0.00306182
0.4895 0.00305066
0.49 0.00304734
0.4905 0.00305414
0.491 0.00306504
0.4915 0.00307371
0.492 0.00308745
0.4925 0.00313496
0.493 0.00325325
0.4935 0.00344626
0.494 0.00364452
0.4945 0.00373219
0.495 0.00364814
0.4955 0.00345016
0.496 0.00325661
0.4965 0.00314064
0.497 0.00309779
0.4975 0.00309024
0.498 0.00309095
0.4985 0.00309047
0.499 0.00308673
0.4995 0.00308086
0.5 0.00307795
0.5005 0.00308436
0.501 0.0031024
0.5015 0.00312743
0.502 0.00314919
0.5025 0.00315684
0.503 0.00314557
0.5035 0.00312059
0.504 0.00309465
0.5045 0.0030791
0.505 0.00307604
0.5055 0.00308084
0.506 0.00309156
0.5065 0.00311077
0.507 0.00313755
0.5075 0.00316441
0.508 0.00318491
0.5085 0.00319858
0.509 0.00320688
0.5095 0.00321031
0.51 0.00321034
0.5105 0.00320963
0.511 0.00320968
0.5115 0.00320926
0.512 0.00320436
0.5125 0.00319056
0.513 0.00316777
0.5135 0.0031433
0.514 0.00312918
0.5145 0.00313467
0.515 0.00315914
0.5155 0.00319144
0.516 0.00321732
0.5165 0.00322804
0.517 0.00322318
0.5175 0.00320891
0.518 0.0031946
0.5185 0.00318747
0.519 0.0031879
0.5195 0.00319058
0.52 0.00319051
0.5205 0.0031861
0.521 0.00317707
0.5215 0.00316301
0.522 0.00314596
0.5225 0.00313083
0.523 0.00311999
0.5235 0.00310945
0.524 0.00309313
0.5245 0.00306953
0.525 0.00304281
0.5255 0.00301907
0.526 0.00300292
0.5265 0.00299814
0.527 0.00301106
0.5275 0.00304871
0.528 0.00310833
0.5285 0.00317006
0.529 0.00320759
0.5295 0.00320902
0.53 0.00318477
0.5305 0.00315517
0.531 0.00313286
0.5315 0.00311506
0.532 0.00308961
0.5325 0.00304839
0.533 0.0029961
0.5335 0.00294752
0.534 0.00291799
0.5345 0.00291544
0.535 0.00293773
0.5355 0.00297488
0.536 0.00301385
0.5365 0.00304421
0.537 0.00306224
0.5375 0.00307032
0.538 0.00307201
0.5385 0.00306864
0.539 0.00306066
0.5395 0.0030502
0.54 0.0030409
0.5405 0.00303516
0.541 0.0030316
0.5415 0.00302529
0.542 0.00301241
0.5425 0.00299501
0.543 0.00297902
0.5435 0.00296731
0.544 0.00295732
0.5445 0.0029459
0.545 0.00293384
0.5455 0.00292512
0.546 0.00292351
0.5465 0.00292959
0.547 0.00293845
0.5475 0.00294107
0.548 0.00293241
0.5485 0.00291863
0.549 0.00291226
0.5495 0.00291909
0.55 0.00293395
0.5505 0.00294992
0.551 0.00296489
0.5515 0.00297615
0.552 0.00297691
0.5525 0.00296613
0.553 0.0029569
0.5535 0.00296545
0.554 0.0029919
0.5545 0.00301654
0.555 0.00301534
0.5555 0.0029786
0.556 0.00291708
0.5565 0.00285417
0.557 0.00281451
0.5575 0.00282057
0.558 0.00289701
0.5585 0.00306519
0.559 0.00330986
0.5595 0.0035443
0.56 0.00364246
0.5605 0.00354352
0.561 0.00331381
0.5615 0.00308287
0.562 0.00293412
0.5625 0.00287035
0.563 0.00285584
0.5635 0.00286084
0.564 0.00287062
0.5645 0.00287585
0.565 0.00286956
0.5655 0.00285159
0.566 0.00282841
0.5665 0.00280702
0.567 0.00278997
0.5675 0.0027751
0.568 0.00276031
0.5685 0.00274792
0.569 0.00274241
0.5695 0.00274432
0.57 0.00274991
0.5705 0.00275677
0.571 0.00276617
0.5715 0.00277848
0.572 0.00278818
0.5725 0.00278665
0.573 0.00277119
0.5735 0.00274924
0.574 0.00273067
0.5745 0.00271751
0.575 0.00270362
0.5755 0.00268262
0.576 0.00265451
0.5765 0.00262481
0.577 0.00259837
0.5775 0.00257588
0.578 0.00255752
0.5785 0.00254629
0.579 0.00254382
0.5795 0.00254474
0.58 0.00253954
0.5805 0.00252466
0.581 0.00250863
0.5815 0.00250539
0.582 0.00251969
0.5825 0.00254107
0.583 0.0025541
0.5835 0.0025517
0.584 0.00253833
0.5845 0.00252454
0.585 0.0025191
0.5855 0.00252244
0.586 0.00252792
0.5865 0.00253161
0.587 0.00253779
0.5875 0.00255135
0.588 0.00256796
0.5885 0.00257608
0.589 0.00256673
0.5895 0.00253877
0.59 0.00249832
0.5905 0.00245652
0.591 0.00242415
0.5915 0.00240447
0.592 0.00239232
0.5925 0.0023821
0.593 0.00237459
0.5935 0.00237366
0.594 0.00237799
0.5945 0.00237884
0.595 0.00236745
0.5955 0.00234427
0.596 0.00232056
0.5965 0.00230996
0.597 0.00231673
0.5975 0.0023313
