# Spinless fermions Hamiltonian with random disorder and nearest neighbour interactions
# L=32x2 (size), J=0.5 (hoping amplitude), V=0.5 (interaction), W/J=4 (disorder strength), N=30 (disorder realizations), T=25 (number of trajectories)
# Evolution of Imbalance in time (fTWA method)
# time t, Imbalance I

   0.00000000000000000   1.00000000000000000
   0.10000000000000001   0.98989691542129143
   0.20000000000000001   0.96115606205313864
   0.30000000000000004   0.91534905730660965
   0.40000000000000002   0.85495189781954828
   0.50000000000000000   0.78314771759023005
   0.59999999999999998   0.70356953867939831
   0.69999999999999996   0.62000713682580821
   0.79999999999999993   0.53611016600289740
   0.89999999999999991   0.45512322976288266
   0.99999999999999989   0.37968489145194873
   1.09999999999999987   0.31171148327204345
   1.19999999999999996   0.25237087193593361
   1.30000000000000004   0.20213579061823009
   1.40000000000000013   0.16089526720619485
   1.50000000000000022   0.12809810599277399
   1.60000000000000031   0.10290393506093468
   1.70000000000000040   0.08432261264203560
   1.80000000000000049   0.07132939719051412
   1.90000000000000058   0.06294950639558970
   2.00000000000000044   0.05831085151390036
   2.10000000000000053   0.05666762179223550
   2.20000000000000062   0.05740015997630794
   2.30000000000000071   0.05999841336334703
   2.40000000000000080   0.06403713167326316
   2.50000000000000089   0.06915067638740190
   2.60000000000000098   0.07501365413743441
   2.70000000000000107   0.08133086806751903
   2.80000000000000115   0.08783688372894786
   2.90000000000000124   0.09430245765512529
   3.00000000000000133   0.10054316252221364
   3.10000000000000142   0.10642549736962868
   3.20000000000000151   0.11186756767049882
   3.30000000000000160   0.11683392475926217
   3.40000000000000169   0.12132603208148245
   3.50000000000000178   0.12537046151645082
   3.60000000000000187   0.12900661302882388
   3.70000000000000195   0.13227532645055556
   3.80000000000000204   0.13520964593635651
   3.90000000000000213   0.13782902604962446
   4.00000000000000178   0.14013793112473852
   4.10000000000000142   0.14212887324694337
   4.20000000000000107   0.14378866947398286
   4.30000000000000071   0.14510564366435780
   4.40000000000000036   0.14607544812451217
   4.50000000000000000   0.14670436480309826
   4.59999999999999964   0.14701068580714582
   4.69999999999999929   0.14702574487684977
   4.79999999999999893   0.14679564391304820
   4.89999999999999858   0.14638331877214372
   4.99999999999999822   0.14586950168571075
   5.09999999999999787   0.14535095041402166
   5.19999999999999751   0.14493473477464103
   5.29999999999999716   0.14472810850374399
   5.39999999999999680   0.14482473658435441
   5.49999999999999645   0.14528986174663819
   5.59999999999999609   0.14614848748113984
   5.69999999999999574   0.14738049048492763
   5.79999999999999538   0.14892431194190384
   5.89999999999999503   0.15068773948237010
   5.99999999999999467   0.15256204118702835
   6.09999999999999432   0.15443542214430242
   6.19999999999999396   0.15620303941491059
   6.29999999999999361   0.15777270889581776
   6.39999999999999325   0.15906708979878659
   6.49999999999999289   0.16002421140943218
   6.59999999999999254   0.16059843829843728
   6.69999999999999218   0.16076315262792043
   6.79999999999999183   0.16051475102791404
   6.89999999999999147   0.15987589961586687
   6.99999999999999112   0.15889552715048974
   7.09999999999999076   0.15764411838892081
   7.19999999999999041   0.15620476982377099
   7.29999999999999005   0.15466189816950540
   7.39999999999998970   0.15308996383982756
   7.49999999999998934   0.15154434273470241
   7.59999999999998899   0.15005598128975969
   7.69999999999998863   0.14863082351850304
   7.79999999999998828   0.14725411589534113
   7.89999999999998792   0.14589870925904788
   7.99999999999998757   0.14453571791450878
   8.09999999999998721   0.14314552504962488
   8.19999999999998685   0.14172705502986491
   8.29999999999998650   0.14030325572915106
   8.39999999999998614   0.13892094458416943
   8.49999999999998579   0.13764401252138161
   8.59999999999998543   0.13654062772179112
   8.69999999999998508   0.13566718039548112
   8.79999999999998472   0.13505336280525629
   8.89999999999998437   0.13469294810654459
   8.99999999999998401   0.13454315463621444
   9.09999999999998366   0.13453254015544650
   9.19999999999998330   0.13457457438543891
   9.29999999999998295   0.13458266661071161
   9.39999999999998259   0.13448277693628022
   9.49999999999998224   0.13422125954392367
   9.59999999999998188   0.13376742117043175
   9.69999999999998153   0.13311181380761283
   9.79999999999998117   0.13226214579921841
   9.89999999999998082   0.13123885339149371
   9.99999999999998046   0.13007183511135720
  10.09999999999998010   0.12879884996795807
  10.19999999999997975   0.12746506725119838
  10.29999999999997939   0.12612258495307987
  10.39999999999997904   0.12482865101713747
  10.49999999999997868   0.12364176807518089
  10.59999999999997833   0.12261587190013122
  10.69999999999997797   0.12179381167700293
  10.79999999999997762   0.12120179554198170
  10.89999999999997726   0.12084602670617918
  10.99999999999997691   0.12071189583423883
  11.09999999999997655   0.12076545377028966
  11.19999999999997620   0.12095670888999310
  11.29999999999997584   0.12122436535174534
  11.39999999999997549   0.12150165446654741
  11.49999999999997513   0.12172280401600297
  11.59999999999997478   0.12182953453438095
  11.69999999999997442   0.12177688327266489
  11.79999999999997407   0.12153769148497910
  11.89999999999997371   0.12110523422121246
  11.99999999999997335   0.12049372203741648
  12.09999999999997300   0.11973672738668603
  12.19999999999997264   0.11888382075495094
  12.29999999999997229   0.11799555804218161
  12.39999999999997193   0.11713658194224430
  12.49999999999997158   0.11636660835547871
  12.59999999999997122   0.11572996439576957
  12.69999999999997087   0.11524598561765860
  12.79999999999997051   0.11490380496419166
  12.89999999999997016   0.11466459931826663
  12.99999999999996980   0.11447176879492327
  13.09999999999996945   0.11426607303541730
  13.19999999999996909   0.11400068082273292
  13.29999999999996874   0.11365163659227666
  13.39999999999996838   0.11322170469583373
  13.49999999999996803   0.11273793421190487
  13.59999999999996767   0.11224448192919131
  13.69999999999996732   0.11179249859069185
  13.79999999999996696   0.11142909963752756
  13.89999999999996660   0.11118772213915318
  13.99999999999996625   0.11108193309620561
  14.09999999999996589   0.11110368022723099
  14.19999999999996554   0.11122556202612439
  14.29999999999996518   0.11140569208789532
  14.39999999999996483   0.11159351614207140
  14.49999999999996447   0.11173549499739945
  14.59999999999996412   0.11178062377003141
  14.69999999999996376   0.11168664083535838
  14.79999999999996341   0.11142751663476141
  14.89999999999996305   0.11100115929360416
  14.99999999999996270   0.11043429298581013
  15.09999999999996234   0.10978097010912309
  15.19999999999996199   0.10911297312488766
  15.29999999999996163   0.10850368100370769
  15.39999999999996128   0.10801008238271184
  15.49999999999996092   0.10765884466684357
  15.59999999999996056   0.10744107112187339
  15.69999999999996021   0.10731718558248073
  15.79999999999995985   0.10722970940543924
  15.89999999999995950   0.10711917053212340
  15.99999999999995914   0.10693799081689015
  16.09999999999995879   0.10665885770805303
  16.19999999999996021   0.10627675741910322
  16.29999999999996163   0.10580608583071544
  16.39999999999996305   0.10527521303065775
  16.49999999999996447   0.10472052537581902
  16.59999999999996589   0.10418087042065427
  16.69999999999996732   0.10369235892947161
  16.79999999999996874   0.10328333853495567
  16.89999999999997016   0.10297011006768390
  16.99999999999997158   0.10275474157340382
  17.09999999999997300   0.10262616381038418
  17.19999999999997442   0.10256434530145282
  17.29999999999997584   0.10254570881001444
  17.39999999999997726   0.10254745258030765
  17.49999999999997868   0.10254957563235627
  17.59999999999998010   0.10253524943460861
  17.69999999999998153   0.10249112765239755
  17.79999999999998295   0.10240849446949894
  17.89999999999998437   0.10228465758382242
  17.99999999999998579   0.10212318487582707
  18.09999999999998721   0.10193217374218637
  18.19999999999998863   0.10172107895257786
  18.29999999999999005   0.10149757393300143
  18.39999999999999147   0.10126581783821015
  18.49999999999999289   0.10102662784211355
  18.59999999999999432   0.10077906789756179
  18.69999999999999574   0.10052242431965522
  18.79999999999999716   0.10025764358465480
  18.89999999999999858   0.09998774335525933
  19.00000000000000000   0.09971711589920929
  19.10000000000000142   0.09944984718163967
  19.20000000000000284   0.09918726356677134
  19.30000000000000426   0.09892506652466022
  19.40000000000000568   0.09865064892107614
  19.50000000000000711   0.09834147530110308
  19.60000000000000853   0.09796568790283181
  19.70000000000000995   0.09748611327950875
  19.80000000000001137   0.09686806883492965
  19.90000000000001279   0.09608968265257069
  20.00000000000001421   0.09515163791310513
  20.10000000000001563   0.09408268191823257
  20.20000000000001705   0.09293862996623996
  20.30000000000001847   0.09179511881152697
  20.40000000000001990   0.09073640849433705
  20.50000000000002132   0.08984320832058368
  20.60000000000002274   0.08918200753272354
  20.70000000000002416   0.08879748866983130
  20.80000000000002558   0.08870874395394383
  20.90000000000002700   0.08890927860354425
  21.00000000000002842   0.08937008979160373
  21.10000000000002984   0.09004457420985436
  21.20000000000003126   0.09087384355522550
  21.30000000000003268   0.09179143492206521
  21.40000000000003411   0.09272734946289229
  21.50000000000003553   0.09361240685489496
  21.60000000000003695   0.09438416188026838
  21.70000000000003837   0.09499451022148300
  21.80000000000003979   0.09541715921860811
  21.90000000000004121   0.09565194969973081
  22.00000000000004263   0.09572381960064788
  22.10000000000004405   0.09567654538828252
  22.20000000000004547   0.09556355548984725
  22.30000000000004690   0.09543869599795980
  22.40000000000004832   0.09534892757045177
  22.50000000000004974   0.09532963628003351
  22.60000000000005116   0.09540244244638266
  22.70000000000005258   0.09557515448862290
  22.80000000000005400   0.09584339976967662
  22.90000000000005542   0.09619323233819178
  23.00000000000005684   0.09660379864606239
  23.10000000000005826   0.09704912698151127
  23.20000000000005969   0.09749848725961578
  23.30000000000006111   0.09791567447233046
  23.40000000000006253   0.09825865013038759
  23.50000000000006395   0.09848142842621455
  23.60000000000006537   0.09853918927502815
  23.70000000000006679   0.09839575907275590
  23.80000000000006821   0.09803114343694715
  23.90000000000006963   0.09744674649361601
  24.00000000000007105   0.09666702810026624
  24.10000000000007248   0.09573766434709111
  24.20000000000007390   0.09472095102345469
  24.30000000000007532   0.09368917729546697
  24.40000000000007674   0.09271644573078849
  24.50000000000007816   0.09186950444482357
  24.60000000000007958   0.09119875055994185
  24.70000000000008100   0.09073121998108212
  24.80000000000008242   0.09046739168518309
  24.90000000000008384   0.09038277967564474
  25.00000000000008527   0.09043393756703612
  25.10000000000008669   0.09056730827049282
  25.20000000000008811   0.09072871074733181
  25.30000000000008953   0.09087138887017712
  25.40000000000009095   0.09096134350434940
  25.50000000000009237   0.09097969316162240
  25.60000000000009379   0.09092243508087161
  25.70000000000009521   0.09079795267823842
  25.80000000000009663   0.09062228886935196
  25.90000000000009805   0.09041223190834688
  26.00000000000009948   0.09017706757285458
  26.10000000000010090   0.08991116371553998
  26.20000000000010232   0.08959049216573364
  26.30000000000010374   0.08917569475858289
  26.40000000000010516   0.08862206628749014
  26.50000000000010658   0.08789374370340022
  26.60000000000010800   0.08697717589946644
  26.70000000000010942   0.08588891464735769
  26.80000000000011084   0.08467492029095189
  26.90000000000011227   0.08340180644735995
  27.00000000000011369   0.08214325689033329
  27.10000000000011511   0.08096603858161505
  27.20000000000011653   0.07991935524191489
  27.30000000000011795   0.07902944022124943
  27.40000000000011937   0.07829934419661336
  27.50000000000012079   0.07771259859233676
  27.60000000000012221   0.07723908789795651
  27.70000000000012363   0.07684185241393229
  27.80000000000012506   0.07648407522075763
  27.90000000000012648   0.07613565945360749
  28.00000000000012790   0.07577848105479366
  28.10000000000012932   0.07540915305900754
  28.20000000000013074   0.07503853425969921
  28.30000000000013216   0.07468832684270761
  28.40000000000013358   0.07438627569642513
  28.50000000000013500   0.07416187794832695
  28.60000000000013642   0.07404383803812560
  28.70000000000013785   0.07405927093970585
  28.80000000000013927   0.07423362019873114
  28.90000000000014069   0.07458992590909339
  29.00000000000014211   0.07514636062218966
  29.10000000000014353   0.07591164116506155
  29.20000000000014495   0.07687888815564840
  29.30000000000014637   0.07801961484007899
  29.40000000000014779   0.07928035771828616
  29.50000000000014921   0.08058437141858152
  29.60000000000015064   0.08183952589477500
  29.70000000000015206   0.08295148803889163
  29.80000000000015348   0.08383927735916774
  29.90000000000015490   0.08444914354436457
  30.00000000000015632   0.08476294330088495
  30.10000000000015774   0.08479886137957118
  30.20000000000015916   0.08460484926009450
  30.30000000000016058   0.08424735498365214
  30.40000000000016200   0.08379869310248925
  30.50000000000016342   0.08332558227389789
  30.60000000000016485   0.08287994556924090
  30.70000000000016627   0.08249234490615005
  30.80000000000016769   0.08216880048470479
  30.90000000000016911   0.08189232814952810
  31.00000000000017053   0.08162999457182760
  31.10000000000017195   0.08134428891867612
  31.20000000000017337   0.08100528735980667
  31.30000000000017479   0.08059932680931320
  31.40000000000017621   0.08013137199229542
  31.50000000000017764   0.07962113015043291
  31.60000000000017906   0.07909531860310103
  31.70000000000018048   0.07857906710299171
  31.80000000000018190   0.07808854038219774
  31.90000000000018332   0.07762580771372682
  32.00000000000018474   0.07717678298087764
  32.10000000000018616   0.07671336304923182
  32.20000000000018758   0.07620052248027573
  32.30000000000018900   0.07560739974630200
  32.40000000000019043   0.07491918680554908
  32.50000000000019185   0.07414558720005052
  32.60000000000019327   0.07332270215747091
  32.70000000000019469   0.07250784337743675
  32.80000000000019611   0.07176930228218138
  32.90000000000019753   0.07117427838499073
  33.00000000000019895   0.07077782934773348
  33.10000000000020037   0.07061455660851267
  33.20000000000020179   0.07069359458697015
  33.30000000000020322   0.07099688169351873
  33.40000000000020464   0.07148071621801906
  33.50000000000020606   0.07208088097708010
  33.60000000000020748   0.07272157902612636
  33.70000000000020890   0.07332766946053972
  33.80000000000021032   0.07383828295147098
  33.90000000000021174   0.07421844065914542
  34.00000000000021316   0.07446483167939190
  34.10000000000021458   0.07460322847393726
  34.20000000000021600   0.07467789846049139
  34.30000000000021743   0.07473651179143309
  34.40000000000021885   0.07481578985940673
  34.50000000000022027   0.07493256249918845
  34.60000000000022169   0.07508229871749804
  34.70000000000022311   0.07524416235557854
  34.80000000000022453   0.07538983848132425
  34.90000000000022595   0.07549331489799845
  35.00000000000022737   0.07553964341163850
  35.10000000000022879   0.07553131768197412
  35.20000000000023022   0.07549095163036834
  35.30000000000023164   0.07545900541730986
  35.40000000000023306   0.07548607773905834
  35.50000000000023448   0.07562078679338249
  35.60000000000023590   0.07589595635114595
  35.70000000000023732   0.07631692238379265
  35.80000000000023874   0.07685569288488885
  35.90000000000024016   0.07745327197349318
  36.00000000000024158   0.07803001612070863
  36.10000000000024301   0.07850146073977807
  36.20000000000024443   0.07879570263399506
  36.30000000000024585   0.07886852919898835
  36.40000000000024727   0.07871349747520569
  36.50000000000024869   0.07836522695280967
  36.60000000000025011   0.07789502319888582
  36.70000000000025153   0.07739902512512858
  36.80000000000025295   0.07698072500594728
  36.90000000000025437   0.07673147455890718
  37.00000000000025580   0.07671347731193055
  37.10000000000025722   0.07694911293963014
  37.20000000000025864   0.07741866022127400
  37.30000000000026006   0.07806631101525516
  37.40000000000026148   0.07881237162852073
  37.50000000000026290   0.07956816318633893
  37.60000000000026432   0.08024984204486137
  37.70000000000026574   0.08078848668839492
  37.80000000000026716   0.08113579314585838
  37.90000000000026859   0.08126636334833244
  38.00000000000027001   0.08117784788396266
  38.10000000000027143   0.08088940965183872
  38.20000000000027285   0.08043820127952682
  38.30000000000027427   0.07987365999216439
  38.40000000000027569   0.07925021920878200
  38.50000000000027711   0.07861972733810092
  38.60000000000027853   0.07802480562701347
  38.70000000000027995   0.07749375587713835
  38.80000000000028137   0.07703710496540137
  38.90000000000028280   0.07664600042267236
  39.00000000000028422   0.07629313959681107
  39.10000000000028564   0.07593701643518162
  39.20000000000028706   0.07552961988614172
  39.30000000000028848   0.07502664934361539
  39.40000000000028990   0.07439837366815628
  39.50000000000029132   0.07363871180624545
  39.60000000000029274   0.07277011740275958
  39.70000000000029416   0.07184251061384807
  39.80000000000029559   0.07092580528894217
  39.90000000000029701   0.07009725476670739
  40.00000000000029843   0.06942641151150365
  40.10000000000029985   0.06896134997140085
  40.20000000000030127   0.06871960921652261
  40.30000000000030269   0.06868603096351747
  40.40000000000030411   0.06881763979231796
  40.50000000000030553   0.06905363826088075
  40.60000000000030695   0.06932720833865186
  40.70000000000030838   0.06957569494705169
  40.80000000000030980   0.06974692610134085
  40.90000000000031122   0.06980138767715760
  41.00000000000031264   0.06971187176758416
  41.10000000000031406   0.06946302405540732
  41.20000000000031548   0.06905228440141162
  41.30000000000031690   0.06849162161402396
  41.40000000000031832   0.06780778770783263
  41.50000000000031974   0.06703911268080796
  41.60000000000032117   0.06622901235213782
  41.70000000000032259   0.06541874166355728
  41.80000000000032401   0.06464252426173112
  41.90000000000032543   0.06392655073125467
  42.00000000000032685   0.06329080406907228
  42.10000000000032827   0.06275122427829283
  42.20000000000032969   0.06232043625681832
  42.30000000000033111   0.06200727094201790
  42.40000000000033253   0.06181679178771707
  42.50000000000033396   0.06175228682603001
  42.60000000000033538   0.06181904967656179
