# Spinless fermions Hamiltonian with random disorder and nearest neighbour interactions
# L=64x1 (size), J=0.5 (hoping amplitude), V=0.5 (interaction), W/J=2 (disorder strength), N=30 (disorder realizations), T=25 (number of trajectories)
# Evolution of Imbalance in time (fTWA method)
# time t, Imbalance I

   0.00000000000000000   1.00000000000000000
   0.10000000000000001   0.98948972939853808
   0.20000000000000001   0.95983540916947307
   0.30000000000000004   0.91217631738582938
   0.40000000000000002   0.84833175231205349
   0.50000000000000000   0.77071038692262972
   0.59999999999999998   0.68219060477192284
   0.69999999999999996   0.58597806695200927
   0.79999999999999993   0.48544937078045775
   0.89999999999999991   0.38399181774204777
   0.99999999999999989   0.28484962266086267
   1.09999999999999987   0.19098599067358005
   1.19999999999999996   0.10496862094699527
   1.30000000000000004   0.02888358808837924
   1.40000000000000013  -0.03572012405944819
   1.50000000000000022  -0.08785562213385871
   1.60000000000000031  -0.12709471166276787
   1.70000000000000040  -0.15353942592078110
   1.80000000000000049  -0.16777248157991662
   1.90000000000000058  -0.17079091675016639
   2.00000000000000044  -0.16392726902311602
   2.10000000000000053  -0.14876266302165861
   2.20000000000000062  -0.12703619908249958
   2.30000000000000071  -0.10055496730659323
   2.40000000000000080  -0.07110881240225959
   2.50000000000000089  -0.04039357197249712
   2.60000000000000098  -0.00994587479605637
   2.70000000000000107   0.01890821685441554
   2.80000000000000115   0.04508935920488270
   2.90000000000000124   0.06778547480386521
   3.00000000000000133   0.08645722874258856
   3.10000000000000142   0.10082978609914822
   3.20000000000000151   0.11087283899465215
   3.30000000000000160   0.11677132807746458
   3.40000000000000169   0.11888944712861300
   3.50000000000000178   0.11773051462574918
   3.60000000000000187   0.11389511077306889
   3.70000000000000195   0.10803962339768701
   3.80000000000000204   0.10083703775667792
   3.90000000000000213   0.09294151381122519
   4.00000000000000178   0.08495800732239105
   4.10000000000000142   0.07741789998415385
   4.20000000000000107   0.07076129557342817
   4.30000000000000071   0.06532627021386027
   4.40000000000000036   0.06134494014747720
   4.50000000000000000   0.05894578625668340
   4.59999999999999964   0.05816128680233253
   4.69999999999999929   0.05893963493285085
   4.79999999999999893   0.06115919835373974
   4.89999999999999858   0.06464438463262831
   4.99999999999999822   0.06918171334875800
   5.09999999999999787   0.07453508921967865
   5.19999999999999751   0.08045953731549922
   5.29999999999999716   0.08671290886473766
   5.39999999999999680   0.09306532462436697
   5.49999999999999645   0.09930634067537880
   5.59999999999999609   0.10524998852692519
   5.69999999999999574   0.11073795224862978
   5.79999999999999538   0.11564117822742691
   5.89999999999999503   0.11986023188952498
   5.99999999999999467   0.12332467071795740
   6.09999999999999432   0.12599166806698528
   6.19999999999999396   0.12784406533084747
   6.29999999999999361   0.12888798328000878
   6.39999999999999325   0.12915007990796332
   6.49999999999999289   0.12867452810997840
   6.59999999999999254   0.12751976013071228
   6.69999999999999218   0.12575506944805220
   6.79999999999999183   0.12345717268201545
   6.89999999999999147   0.12070687279591760
   6.99999999999999112   0.11758596263993099
   7.09999999999999076   0.11417447154989836
   7.19999999999999041   0.11054831270868611
   7.29999999999999005   0.10677732934200562
   7.39999999999998970   0.10292373492099460
   7.49999999999998934   0.09904096344410319
   7.59999999999998899   0.09517298647749793
   7.69999999999998863   0.09135418028692696
   7.79999999999998828   0.08760982835733927
   7.89999999999998792   0.08395728298905791
   7.99999999999998757   0.08040773186202227
   8.09999999999998721   0.07696841254926226
   8.19999999999998685   0.07364502975007454
   8.29999999999998650   0.07044408193317393
   8.39999999999998614   0.06737479889095642
   8.49999999999998579   0.06445045715945522
   8.59999999999998543   0.06168893692904167
   8.69999999999998508   0.05911250931388831
   8.79999999999998472   0.05674694694350516
   8.89999999999998437   0.05462013283909306
   8.99999999999998401   0.05276035288536973
   9.09999999999998366   0.05119443834571593
   9.19999999999998330   0.04994588053746572
   9.29999999999998295   0.04903299857995302
   9.39999999999998259   0.04846725404757194
   9.49999999999998224   0.04825183348324540
   9.59999999999998188   0.04838064941110377
   9.69999999999998153   0.04883793714121788
   9.79999999999998117   0.04959856021208403
   9.89999999999998082   0.05062905390071663
   9.99999999999998046   0.05188932197472773
  10.09999999999998010   0.05333479575621344
  10.19999999999997975   0.05491881992699855
  10.29999999999997939   0.05659500641638483
  10.39999999999997904   0.05831935246630253
  10.49999999999997868   0.06005197876398750
  10.59999999999997833   0.06175841966849745
  10.69999999999997797   0.06341046098185352
  10.79999999999997762   0.06498656622367856
  10.89999999999997726   0.06647193328346290
  10.99999999999997691   0.06785823027937941
  11.09999999999997655   0.06914302393664053
  11.19999999999997620   0.07032890806770206
  11.29999999999997584   0.07142235012916533
  11.39999999999997549   0.07243231306329867
  11.49999999999997513   0.07336877178711294
  11.59999999999997478   0.07424130043472357
  11.69999999999997442   0.07505792569046596
  11.79999999999997407   0.07582442403899031
  11.89999999999997371   0.07654415319251173
  11.99999999999997335   0.07721840487440483
  12.09999999999997300   0.07784712434963949
  12.19999999999997264   0.07842974735241591
  12.29999999999997229   0.07896586686983527
  12.39999999999997193   0.07945548889668530
  12.49999999999997158   0.07989875775427578
  12.59999999999997122   0.08029521089257778
  12.69999999999997087   0.08064276395469448
  12.79999999999997051   0.08093674363300724
  12.89999999999997016   0.08116927658909433
  12.99999999999996980   0.08132926391892328
  13.09999999999996945   0.08140301491187070
  13.19999999999996909   0.08137547405309271
  13.29999999999996874   0.08123185337058336
  13.39999999999996838   0.08095944024796656
  13.49999999999996803   0.08054937124133529
  13.59999999999996767   0.07999819440064183
  13.69999999999996732   0.07930907576171801
  13.79999999999996696   0.07849250972497376
  13.89999999999996660   0.07756638754118855
  13.99999999999996625   0.07655529804200556
  14.09999999999996589   0.07548899463678276
  14.19999999999996554   0.07440008626697732
  14.29999999999996518   0.07332115865512925
  14.39999999999996483   0.07228167663157262
  14.49999999999996447   0.07130509266703368
  14.59999999999996412   0.07040659265120479
  14.69999999999996376   0.06959182021654722
  14.79999999999996341   0.06885676304640698
  14.89999999999996305   0.06818880693119145
  14.99999999999996270   0.06756878254623684
  15.09999999999996234   0.06697370369563387
  15.19999999999996199   0.06637983144898314
  15.29999999999996163   0.06576569181336174
  15.39999999999996128   0.06511473437561047
  15.49999999999996092   0.06441739412786886
  15.59999999999996056   0.06367240511394387
  15.69999999999996021   0.06288729504391624
  15.79999999999995985   0.06207802865101347
  15.89999999999995950   0.06126783914616286
  15.99999999999995914   0.06048532587074963
  16.09999999999995879   0.05976198112397235
  16.19999999999996021   0.05912936428993715
  16.29999999999996163   0.05861620183424467
  16.39999999999996305   0.05824570057173566
  16.49999999999996447   0.05803333928971305
  16.59999999999996589   0.05798532464684374
  16.69999999999996732   0.05809780152785644
  16.79999999999996874   0.05835683122174661
  16.89999999999997016   0.05873907561061570
  16.99999999999997158   0.05921310391346808
  17.09999999999997300   0.05974123064266953
  17.19999999999997442   0.06028179428546927
  17.29999999999997584   0.06079176794005321
  17.39999999999997726   0.06122955584744877
  17.49999999999997868   0.06155779016715123
  17.59999999999998010   0.06174589341167137
  17.69999999999998153   0.06177217277021613
  17.79999999999998295   0.06162525998098765
  17.89999999999998437   0.06130479605383005
  17.99999999999998579   0.06082136472808873
  18.09999999999998721   0.06019574866333528
  18.19999999999998863   0.05945762569144315
  18.29999999999999005   0.05864378707022081
  18.39999999999999147   0.05779595388063417
  18.49999999999999289   0.05695824957920798
  18.59999999999999432   0.05617443384481016
  18.69999999999999574   0.05548505348312632
  18.79999999999999716   0.05492472319745254
  18.89999999999999858   0.05451977818878059
  19.00000000000000000   0.05428653305374949
  19.10000000000000142   0.05423034000604983
  19.20000000000000284   0.05434556370700994
  19.30000000000000426   0.05461650405375407
  19.40000000000000568   0.05501920050171016
  19.50000000000000711   0.05552393747010421
  19.60000000000000853   0.05609819127724266
  19.70000000000000995   0.05670969963827199
  19.80000000000001137   0.05732932607466882
  19.90000000000001279   0.05793341479623174
  20.00000000000001421   0.05850541106230180
  20.10000000000001563   0.05903659660383877
  20.20000000000001705   0.05952589523025473
  20.30000000000001847   0.05997879592275805
  20.40000000000001990   0.06040552516245937
  20.50000000000002132   0.06081868118648568
  20.60000000000002274   0.06123061135147665
  20.70000000000002416   0.06165084677185207
  20.80000000000002558   0.06208392948710394
  20.90000000000002700   0.06252792980926494
  21.00000000000002842   0.06297387173761611
  21.10000000000002984   0.06340615422156309
  21.20000000000003126   0.06380392148533744
  21.30000000000003268   0.06414319437221229
  21.40000000000003411   0.06439947679015376
  21.50000000000003553   0.06455049994278661
  21.60000000000003695   0.06457877692187504
  21.70000000000003837   0.06447369070159939
  21.80000000000003979   0.06423291271362334
  21.90000000000004121   0.06386303307435040
  22.00000000000004263   0.06337936931505540
  22.10000000000004405   0.06280498462833775
  22.20000000000004547   0.06216901356252772
  22.30000000000004690   0.06150445177778426
  22.40000000000004832   0.06084560715289965
  22.50000000000004974   0.06022542776573352
  22.60000000000005116   0.05967294263807644
  22.70000000000005258   0.05921101482005502
  22.80000000000005400   0.05885457299896492
  22.90000000000005542   0.05860942667860262
  23.00000000000005684   0.05847174607354264
  23.10000000000005826   0.05842823419902159
  23.20000000000005969   0.05845701226416800
  23.30000000000006111   0.05852920466756515
  23.40000000000006253   0.05861117098318249
  23.50000000000006395   0.05866726848067199
  23.60000000000006537   0.05866297721628935
  23.70000000000006679   0.05856814003132513
  23.80000000000006821   0.05836003693402551
  23.90000000000006963   0.05802599468289033
  24.00000000000007105   0.05756524913869984
  24.10000000000007248   0.05698984493812968
  24.20000000000007390   0.05632444584499258
  24.30000000000007532   0.05560503527936218
  24.40000000000007674   0.05487659722396747
  24.50000000000007816   0.05418995259307415
  24.60000000000007958   0.05359799251099912
  24.70000000000008100   0.05315159376376756
  24.80000000000008242   0.05289553053163761
  24.90000000000008384   0.05286469717445581
  25.00000000000008527   0.05308096039987269
  25.10000000000008669   0.05355090791909690
  25.20000000000008811   0.05426469676735017
  25.30000000000008953   0.05519610891518949
  25.40000000000009095   0.05630380363450774
  25.50000000000009237   0.05753364487694472
  25.60000000000009379   0.05882188352586958
  25.70000000000009521   0.06009891759020997
  25.80000000000009663   0.06129332714629644
  25.90000000000009805   0.06233589518214604
  26.00000000000009948   0.06316338225747679
  26.10000000000010090   0.06372186762349630
  26.20000000000010232   0.06396953148222541
  26.30000000000010374   0.06387877808900548
  26.40000000000010516   0.06343761236166817
  26.50000000000010658   0.06265017577242966
  26.60000000000010800   0.06153637066512219
  26.70000000000010942   0.06013053624275841
  26.80000000000011084   0.05847924295256274
  26.90000000000011227   0.05663836709120447
  27.00000000000011369   0.05466970651099489
  27.10000000000011511   0.05263745211271974
  27.20000000000011653   0.05060483684182615
  27.30000000000011795   0.04863121748087039
  27.40000000000011937   0.04676977155044273
  27.50000000000012079   0.04506586658018279
  27.60000000000012221   0.04355607470230841
  27.70000000000012363   0.04226774126976297
  27.80000000000012506   0.04121898552372096
  27.90000000000012648   0.04041904627136311
  28.00000000000012790   0.03986890989648727
  28.10000000000012932   0.03956218270703634
  28.20000000000013074   0.03948616814066364
  28.30000000000013216   0.03962310161905500
  28.40000000000013358   0.03995143764513189
  28.50000000000013500   0.04044710287395756
  28.60000000000013642   0.04108459967953288
  28.70000000000013785   0.04183790651645412
  28.80000000000013927   0.04268114767704923
  28.90000000000014069   0.04358907727443306
  29.00000000000014211   0.04453744276382920
  29.10000000000014353   0.04550330581246654
  29.20000000000014495   0.04646536635649224
  29.30000000000014637   0.04740429684948118
  29.40000000000014779   0.04830304620022181
  29.50000000000014921   0.04914705692335494
  29.60000000000015064   0.04992435951495990
  29.70000000000015206   0.05062553596121134
  29.80000000000015348   0.05124358225455176
  29.90000000000015490   0.05177370396390525
  30.00000000000015632   0.05221306096073376
  30.10000000000015774   0.05256045024319482
  30.20000000000015916   0.05281590654326869
  30.30000000000016058   0.05298021795642052
  30.40000000000016200   0.05305439420131489
  30.50000000000016342   0.05303917883644442
  30.60000000000016485   0.05293471241203061
  30.70000000000016627   0.05274044002309815
  30.80000000000016769   0.05245531981860948
  30.90000000000016911   0.05207831238210657
  31.00000000000017053   0.05160910135027071
  31.10000000000017195   0.05104894215813034
  31.20000000000017337   0.05040154813754540
  31.30000000000017479   0.04967391661397094
  31.40000000000017621   0.04887701089319980
  31.50000000000017764   0.04802621102173322
  31.60000000000017906   0.04714145700576217
  31.70000000000018048   0.04624701851079138
  31.80000000000018190   0.04537084746755948
  31.90000000000018332   0.04454353036819207
  32.00000000000018474   0.04379689457435926
  32.10000000000018616   0.04316238712809438
  32.20000000000018758   0.04266936916982521
  32.30000000000018900   0.04234346929670504
  32.40000000000019043   0.04220511506438080
  32.50000000000019185   0.04226833424523790
  32.60000000000019327   0.04253985679182838
  32.70000000000019469   0.04301853702038037
  32.80000000000019611   0.04369509197720894
  32.90000000000019753   0.04455215651610044
  33.00000000000019895   0.04556466224407657
  33.10000000000020037   0.04670055635736726
  33.20000000000020179   0.04792188484451298
  33.30000000000020322   0.04918625581327268
  33.40000000000020464   0.05044868091341800
  33.50000000000020606   0.05166375357769976
  33.60000000000020748   0.05278808392710276
  33.70000000000020890   0.05378283526323509
  33.80000000000021032   0.05461617182163216
  33.90000000000021174   0.05526537073322374
  34.00000000000021316   0.05571832916204243
  34.10000000000021458   0.05597422809202169
  34.20000000000021600   0.05604317643355060
  34.30000000000021743   0.05594478369555664
  34.40000000000021885   0.05570576539488460
  34.50000000000022027   0.05535684922353205
  34.60000000000022169   0.05492936374143122
  34.70000000000022311   0.05445195812207319
  34.80000000000022453   0.05394786812888772
  34.90000000000022595   0.05343305268209393
  35.00000000000022737   0.05291539401615078
  35.10000000000022879   0.05239499097209654
  35.20000000000023022   0.05186545047108600
  35.30000000000023164   0.05131595222032261
  35.40000000000023306   0.05073379362431349
  35.50000000000023448   0.05010706832015421
  35.60000000000023590   0.04942712992811108
  35.70000000000023732   0.04869053549048172
  35.80000000000023874   0.04790024465913931
  35.90000000000024016   0.04706596035981614
  36.00000000000024158   0.04620363035215903
  36.10000000000024301   0.04533423603304477
  36.20000000000024443   0.04448207448450774
  36.30000000000024585   0.04367276422328376
  36.40000000000024727   0.04293119742161510
  36.50000000000024869   0.04227961753154601
  36.60000000000025011   0.04173595627483730
  36.70000000000025153   0.04131252894856154
  36.80000000000025295   0.04101515111235498
  36.90000000000025437   0.04084274485845850
  37.00000000000025580   0.04078746566348235
  37.10000000000025722   0.04083536996682149
  37.20000000000025864   0.04096757728305114
  37.30000000000026006   0.04116182459077139
  37.40000000000026148   0.04139422361539150
  37.50000000000026290   0.04164100078561302
  37.60000000000026432   0.04187999812412253
  37.70000000000026574   0.04209178093957531
  37.80000000000026716   0.04226029567215958
  37.90000000000026859   0.04237314040848093
  38.00000000000027001   0.04242160608469737
  38.10000000000027143   0.04240067721635520
  38.20000000000027285   0.04230916026891291
  38.30000000000027427   0.04215002419162361
  38.40000000000027569   0.04193090927115976
  38.50000000000027711   0.04166465694592202
  38.60000000000027853   0.04136962335712686
  38.70000000000027995   0.04106953383690792
  38.80000000000028137   0.04079267464320659
  38.90000000000028280   0.04057034300033095
  39.00000000000028422   0.04043461217353040
  39.10000000000028564   0.04041561092867913
  39.20000000000028706   0.04053862847080154
  39.30000000000028848   0.04082139246539390
  39.40000000000028990   0.04127185348584865
  39.50000000000029132   0.04188672980592169
  39.60000000000029274   0.04265096424101796
  39.70000000000029416   0.04353812813125373
  39.80000000000029559   0.04451170812495941
  39.90000000000029701   0.04552711876642621
  40.00000000000029843   0.04653425180808284
  40.10000000000029985   0.04748035048217544
  40.20000000000030127   0.04831301573783750
  40.30000000000030269   0.04898317452081803
  40.40000000000030411   0.04944786392998885
  40.50000000000030553   0.04967267806521221
  40.60000000000030695   0.04963375097451726
  40.70000000000030838   0.04931915767688950
  40.80000000000030980   0.04872966940608427
  40.90000000000031122   0.04787885788026438
  41.00000000000031264   0.04679261910527550
  41.10000000000031406   0.04550823739176898
  41.20000000000031548   0.04407310996499923
  41.30000000000031690   0.04254321724730074
  41.40000000000031832   0.04098135077034396
  41.50000000000031974   0.03945505512919975
  41.60000000000032117   0.03803420748983463
  41.70000000000032259   0.03678819008926828
  41.80000000000032401   0.03578266631944330
  41.90000000000032543   0.03507607942864087
  42.00000000000032685   0.03471606754777690
  42.10000000000032827   0.03473606960201197
  42.20000000000032969   0.03515241860310764
  42.30000000000033111   0.03596221832435435
  42.40000000000033253   0.03714224510186209
  42.50000000000033396   0.03864907038910275
  42.60000000000033538   0.04042050716086813
