# XXZ chain with NNN perturbation
# L = 16, full Hilbert space, J = 1, Delta = 1.0, g = 0.10
# Normalized cumlative spectral function for the O1 operator, with frequency scaled by g^2
# omega/g^2, R_1(omega)

1.969311337907422299e+01 9.873197753995192061e-01
1.894924771873821356e+01 9.865885511699955535e-01
1.823348000868440977e+01 9.858718765762704006e-01
1.754474890833459355e+01 9.851390166733408060e-01
1.688203316700363033e+01 9.843285044529496153e-01
1.624435010958866599e+01 9.835211334990201504e-01
1.563075417945816348e+01 9.827121118297318381e-01
1.504033553638024756e+01 9.818485369941587493e-01
1.447221870741134886e+01 9.809558411958305690e-01
1.392556128874463184e+01 9.800662288707312486e-01
1.339955269659338910e+01 9.791018846224119887e-01
1.289341296525715386e+01 9.781402204072183748e-01
1.240639159058832242e+01 9.770680902649580002e-01
1.193776641714436693e+01 9.759171071984695800e-01
1.148684256737553966e+01 9.748539379967652296e-01
1.105295141126021896e+01 9.735843326264156383e-01
1.063544957486010922e+01 9.722965021430434174e-01
1.023371798632519436e+01 9.709809083384971506e-01
9.847160957933771996e+00 9.693574149542008023e-01
9.475205302806545049e+00 9.676837709567920331e-01
9.117299484984920710e+00 9.657621193197793996e-01
8.772912801613362177e+00 9.636116909340075587e-01
8.441534596012981950e+00 9.607476981801064131e-01
8.122673500479718811e+00 9.569143527797782101e-01
7.815856707684089244e+00 9.530480416383031450e-01
7.520629269592412847e+00 9.488521582626467943e-01
7.236553422869655527e+00 9.437982593266569520e-01
6.963207939763882415e+00 9.379464307946682178e-01
6.700187503509588360e+00 9.320614603652603858e-01
6.447102107323868125e+00 9.252140558737812492e-01
6.203576476104273318e+00 9.184360287017624414e-01
5.969249509970732781e+00 9.091662336611737727e-01
5.743773748826585646e+00 8.991667849247338973e-01
5.526814857144602300e+00 8.887154571897560862e-01
5.318051128214201562e+00 8.782321669194114167e-01
5.117173007114603323e+00 8.674748506910854307e-01
4.923882631706740121e+00 8.557683316180367816e-01
4.737893390963142437e+00 8.427296751952656484e-01
4.558929499981062783e+00 8.297873778576803083e-01
4.386725591048497463e+00 8.165737525463887536e-01
4.221026320156902045e+00 8.028408464447798210e-01
4.061585988376979373e+00 7.886219270102354795e-01
3.908168177536267773e+00 7.750528129730583915e-01
3.760545399658171029e+00 7.597205995358328190e-01
3.618498759642749807e+00 7.448307891465628661e-01
3.481817630688965881e+00 7.299256516463484834e-01
3.350299341977232892e+00 7.152297078724566548e-01
3.223748878149029995e+00 7.002485333280248359e-01
3.101978590138096514e+00 6.862516852567442927e-01
2.984807916924327120e+00 6.706827986323999902e-01
2.872063117797827747e+00 6.559906003294602161e-01
2.763577014736159576e+00 6.411041283942745528e-01
2.659188744512693603e+00 6.274963555438375362e-01
2.558743520168588859e+00 6.118623716184899974e-01
2.462092401494625271e+00 5.971036634483632977e-01
2.369092074182634011e+00 5.817105636965486104e-01
2.279604637318979332e+00 5.678969104303525084e-01
2.193497398905059903e+00 5.536396312165166034e-01
2.110642679101554009e+00 5.381079580390040196e-01
2.030917620904736598e+00 5.255976824549027926e-01
1.954204007974053026e+00 5.123094754191825917e-01
1.880388089340916169e+00 4.992842410770751971e-01
1.809360410738716007e+00 4.870862680105492726e-01
1.741015652304017003e+00 4.753279512806606877e-01
1.675252472408214954e+00 4.639307143869333960e-01
1.611973357388158279e+00 4.504534438100875060e-01
1.551084476952840463e+00 4.405506917131967182e-01
1.492495545051830241e+00 4.298124792546449968e-01
1.436119685999078355e+00 4.197025724807217917e-01
1.381873305653631867e+00 4.094260295999914145e-01
1.329675967466212194e+00 3.994722429991127144e-01
1.279450273207873190e+00 3.898892619517000946e-01
1.231121748203890531e+00 3.801112094064648117e-01
1.184618730902683215e+00 3.700597754692084851e-01
1.139872266616052343e+00 3.608006405442560904e-01
1.096816005273137717e+00 3.509767949016681099e-01
1.055386103036523915e+00 3.410718262371714160e-01
1.015521127634567922e+00 3.314229176966673740e-01
9.771619672696180148e-01 3.209235817297697024e-01
9.402517429670129712e-01 3.107851666084610054e-01
9.047357242349300943e-01 3.005180055828006735e-01
8.705612479099863465e-01 2.895079996751129814e-01
8.376776400682923729e-01 2.798455865994949887e-01
8.060361408861344001e-01 2.696886503586135020e-01
7.755898323389007754e-01 2.591016349791914197e-01
7.462935686310135930e-01 2.484831385688155980e-01
7.181039092537354618e-01 2.385607282659149009e-01
6.909790545715643884e-01 2.278439206393778060e-01
6.648787838417268281e-01 2.175962973008044032e-01
6.397643955748429923e-01 2.076333241641140082e-01
6.155986501483512452e-01 1.989383662599618074e-01
5.923457145875805629e-01 1.904907597113215112e-01
5.699711094326074257e-01 1.810951234620437889e-01
5.484416576121019515e-01 1.719837201123748105e-01
5.277254352483536914e-01 1.644890822972515099e-01
5.077917243205403164e-01 1.585427687853303014e-01
4.886109671160325796e-01 1.517610696001983062e-01
4.701547224022133431e-01 1.445986689960445104e-01
4.523956232538052236e-01 1.376478667850196125e-01
4.353073364731891437e-01 1.303512405587597955e-01
4.188645235435270453e-01 1.251026898684217126e-01
4.030428030568053988e-01 1.190745501571175979e-01
3.878187145610722530e-01 1.129515898264815965e-01
3.731696837732755290e-01 1.082750328777214027e-01
3.590739891061054401e-01 1.038300458026508999e-01
3.455107294592220657e-01 9.958195492618659994e-02
3.324597932270941247e-01 9.508209971836030505e-02
3.199018284775066445e-01 9.120717033527520057e-02
3.078182142565079604e-01 8.799552423204200224e-02
2.961910329772555750e-01 8.434002149236970169e-02
2.850030438518108000e-01 8.094692759354979450e-02
2.742376573264951878e-01 7.796994205660209842e-02
2.638789104828934140e-01 7.414655006205900234e-02
2.539114433680346727e-01 7.099570646615699365e-02
2.443204762186488854e-01 6.818565727067189830e-02
2.350917875457286255e-01 6.601294549625830177e-02
2.262116930469026121e-01 6.367923846949100075e-02
2.176670253153458745e-01 6.053505543431839803e-02
2.094451143151470629e-01 5.810809868462200184e-02
2.015337685941732959e-01 5.609159958390280004e-02
1.939212572065830698e-01 5.415019885713080044e-02
1.865962923181745670e-01 5.190124496888780248e-02
1.795480124687831858e-01 4.963898320014090149e-02
1.727659664669036199e-01 4.788949606416109672e-02
1.662400978926613371e-01 4.587510291838250293e-02
1.599607301861487585e-01 4.439795117332159813e-02
1.539185522990206834e-01 4.260485491835470234e-02
1.481046048880675092e-01 4.090121251195100172e-02
1.425102670302998975e-01 3.952038808158050281e-02
1.371272434398400630e-01 3.812825989165719714e-02
1.319475521676707064e-01 3.625406625614559925e-02
1.269635127659973772e-01 3.489195039675720145e-02
1.221677348996792756e-01 3.348252817779050206e-02
1.175531073878369609e-01 3.226236535079889806e-02
1.131127876593921167e-01 3.063038477191639894e-02
1.088401916069006437e-01 2.940047699564130035e-02
1.047289838236358239e-01 2.798726689458439984e-02
1.007730682094461483e-01 2.636160010701510056e-02
9.696657893145518847e-02 2.522780680621250146e-02
9.330387172620357994e-02 2.439220267185539942e-02
8.977951553033329535e-02 2.366371590246390058e-02
8.638828442740452418e-02 2.241186081857990051e-02
8.312514989890629202e-02 2.150309045171050135e-02
7.998527336796705522e-02 2.062305692177340138e-02
7.696399902471165455e-02 1.978998103577839923e-02
7.405684692262440305e-02 1.887972541040650043e-02
7.125950633568409187e-02 1.791728439744319848e-02
6.856782936641736548e-02 1.733046153673720169e-02
6.597782479539544831e-02 1.675071553380659897e-02
6.348565216305222803e-02 1.595351944275190045e-02
6.108761607505037994e-02 1.556426704258809940e-02
5.878016072274910159e-02 1.498718214042090054e-02
5.655986461065012211e-02 1.453672689377390019e-02
5.442343548300271339e-02 1.405382999561410017e-02
5.236770544204653877e-02 1.347831792985220052e-02
5.038962625065149248e-02 1.289664997437070006e-02
4.848626481239077385e-02 1.211562002466389995e-02
4.665479882234476600e-02 1.164103241033550076e-02
4.489251258218606572e-02 1.115949614824989986e-02
4.319679297334173135e-02 1.049601672071000073e-02
4.156512558225987364e-02 1.021618424321700004e-02
3.999509097203668428e-02 9.602240217843099196e-03
3.848436109487431839e-02 9.211414486443700658e-03
3.703069584005140580e-02 8.855583485478100633e-03
3.563193971228583584e-02 8.344500956749000692e-03
3.428601863556589996e-02 7.874529198283899620e-03
3.299093687770941752e-02 7.521275594415600084e-03
3.174477409109192905e-02 7.300163051685300275e-03
3.054568246515431199e-02 7.081012472638899616e-03
2.939188398646889674e-02 6.766786336615600306e-03
2.828166780230034413e-02 6.706164496847699837e-03
2.721338768375308401e-02 6.510248305227999722e-03
2.618545958474232174e-02 6.342056733040299897e-03
2.519635929317018061e-02 5.908017824428899931e-03
2.424462017082330140e-02 5.758425733869400320e-03
2.332883097864157582e-02 5.426218516338400001e-03
2.244763378413223640e-02 5.306420930946799744e-03
2.159972194782716626e-02 4.869259253128799952e-03
2.078383818579759151e-02 4.662517677611000000e-03
1.999877270535286786e-02 4.505473519197900241e-03
1.924336141115979767e-02 4.189710222321599634e-03
1.851648417912153677e-02 4.068851858472799857e-03
1.781706319545732151e-02 3.943872151306000023e-03
1.714406135851971949e-02 3.879883810618899899e-03
1.649648074098020167e-02 3.633025763865700090e-03
1.587336111010208273e-02 3.462939048115099960e-03
1.527377850390715212e-02 3.420704677311300033e-03
1.469684386112447144e-02 3.218895245250799966e-03
1.414170170289023691e-02 3.050902224894399845e-03
1.360752886424332862e-02 3.021688458756500040e-03
1.309353327353612005e-02 2.886320167763599832e-03
1.259895277795028239e-02 2.744214231069300007e-03
1.212305401337652674e-02 2.708254190972999784e-03
1.166513131698196024e-02 2.696652875061299800e-03
1.122450568085307972e-02 2.580388114526700055e-03
1.080052374516253869e-02 2.472103037171699980e-03
1.039255682936712950e-02 2.398856902526700068e-03
9.999999999999998473e-03 2.265052737205900096e-03
9.999999999999998040e-04 9.072870582820860010e-05
9.999999999999997769e-05 2.488252833732990322e-05
9.999999999999997430e-06 1.525878906250035237e-05
