# XXZ spin chain 
# MCLM for L=32, Delta=0.625
# High-T spin conductivity sigma(omega)
# omega/J sigma(omega) sigma(omega){rescaled} 

0.00008 26.25943 27.0094
0.00010 26.52173 27.2717
0.00012 26.77753 27.5275
0.00014 27.02661 27.7766
0.00016 27.26875 28.0188
0.00018 27.50374 28.2537
0.00020 27.73136 28.4814
0.00022 27.95142 28.7014
0.00024 28.16372 28.9137
0.00026 28.36806 29.1181
0.00028 28.56427 29.3143
0.00030 28.75219 29.5022
0.00032 28.93163 29.6816
0.00034 29.10245 29.8525
0.00036 29.26449 30.0145
0.00038 29.41761 30.1676
0.00040 29.56168 30.3117
0.00042 29.69658 30.4466
0.00044 29.82218 30.5722
0.00046 29.93838 30.6884
0.00048 30.04508 30.7951
0.00050 30.14219 30.8922
0.00052 30.22964 30.9796
0.00054 30.30736 31.0574
0.00056 30.37528 31.1253
0.00058 30.43337 31.1834
0.00060 30.48156 31.2316
0.00062 30.51985 31.2699
0.00064 30.54821 31.2982
0.00066 30.56663 31.3166
0.00068 30.57511 31.3251
0.00070 30.57365 31.3237
0.00072 30.56228 31.3123
0.00074 30.54103 31.291
0.00076 30.50995 31.26
0.00078 30.46906 31.2191
0.00080 30.41845 31.1684
0.00082 30.35816 31.1082
0.00084 30.28827 31.0383
0.00086 30.20889 30.9589
0.00088 30.12009 30.8701
0.00090 30.02198 30.772
0.00092 29.91468 30.6647
0.00094 29.79830 30.5483
0.00096 29.67298 30.423
0.00098 29.53885 30.2889
0.00100 29.39606 30.1461
0.00102 29.24476 29.9948
0.00104 29.08510 29.8351
0.00106 28.91724 29.6672
0.00108 28.74137 29.4914
0.00110 28.55766 29.3077
0.00112 28.36629 29.1163
0.00114 28.16746 28.9175
0.00116 27.96135 28.7113
0.00118 27.74817 28.4982
0.00120 27.52813 28.2781
0.00122 27.30144 28.0514
0.00124 27.06830 27.8183
0.00126 26.82894 27.5789
0.00128 26.58358 27.3336
0.00130 26.33244 27.0824
0.00132 26.07574 26.8257
0.00134 25.81372 26.5637
0.00136 25.54661 26.2966
0.00138 25.27463 26.0246
0.00140 24.99803 25.748
0.00142 24.71704 25.467
0.00144 24.43190 25.1819
0.00146 24.14284 24.8928
0.00148 23.85011 24.6001
0.00150 23.55394 24.3039
0.00152 23.25457 24.0046
0.00154 22.95223 23.7022
0.00156 22.64715 23.3971
0.00158 22.33958 23.0896
0.00160 22.02975 22.7797
0.00162 21.71788 22.4679
0.00164 21.40421 22.1542
0.00166 21.08896 21.839
0.00168 20.77236 21.5224
0.00170 20.45463 21.2046
0.00172 20.13597 20.886
0.00174 19.81662 20.5666
0.00176 19.49677 20.2468
0.00178 19.17665 19.9266
0.00180 18.85644 19.6064
0.00182 18.53635 19.2863
0.00184 18.21658 18.9666
0.00186 17.89732 18.6473
0.00188 17.57875 18.3287
0.00190 17.26106 18.0111
0.00192 16.94442 17.6944
0.00194 16.62901 17.379
0.00196 16.31498 17.065
0.00198 16.00252 16.7525
0.00200 15.69177 16.4418
0.00202 15.38289 16.1329
0.00204 15.07601 15.826
0.00206 14.77130 15.5213
0.00208 14.46887 15.2189
0.00210 14.16887 14.9189
0.00212 13.87142 14.6214
0.00214 13.57663 14.3266
0.00216 13.28462 14.0346
0.00218 12.99551 13.7455
0.00220 12.70939 13.4594
0.00222 12.42637 13.1764
0.00224 12.14653 12.8965
0.00226 11.86996 12.62
0.00228 11.59675 12.3468
0.00230 11.32698 12.077
0.00232 11.06071 11.8107
0.00234 10.79801 11.548
0.00236 10.53895 11.2889
0.00238 10.28357 11.0336
0.00240 10.03194 10.7819
0.00242 9.78409 10.5341
0.00244 9.54007 10.2901
0.00246 9.29992 10.0499
0.00248 9.06366 9.81366
0.00250 8.83133 9.58133
0.00252 8.60295 9.35295
0.00254 8.37854 9.12854
0.00256 8.15812 8.90812
0.00258 7.94169 8.69169
0.00260 7.72927 8.47927
0.00262 7.52085 8.27085
0.00264 7.31644 8.06644
0.00266 7.11603 7.86603
0.00268 6.91962 7.66962
0.00270 6.72719 7.47719
0.00272 6.53873 7.28873
0.00274 6.35423 7.10423
0.00276 6.17366 6.92366
0.00278 5.99700 6.747
0.00280 5.82423 6.57423
0.00282 5.65532 6.40532
0.00284 5.49024 6.24024
0.00286 5.32895 6.07895
0.00288 5.17142 5.92142
0.00290 5.01762 5.76762
0.00292 4.86750 5.6175
0.00294 4.72103 5.47103
0.00296 4.57815 5.32815
0.00298 4.43884 5.18884
0.00300 4.30303 5.05303
0.00302 4.17068 4.92068
0.00304 4.04176 4.79176
0.00306 3.91619 4.66619
0.00308 3.79395 4.54395
0.00310 3.66851 4.41851
0.00312 3.54674 4.29674
0.00314 3.42932 4.17932
0.00316 3.31597 4.06597
0.00318 3.20585 3.95585
0.00320 3.09844 3.84844
0.00322 2.99318 3.74318
0.00324 2.88990 3.6399
0.00326 2.78930 3.5393
0.00328 2.69165 3.44165
0.00330 2.59713 3.34713
0.00332 2.50608 3.25608
0.00334 2.41870 3.1687
0.00336 2.33431 3.08431
0.00338 2.25199 3.00199
0.00340 2.17239 2.92239
0.00342 2.09659 2.84659
0.00344 2.02409 2.77409
0.00346 1.95388 2.70388
0.00348 1.88554 2.63554
0.00350 1.81906 2.56906
0.00352 1.75435 2.50435
0.00354 1.69124 2.44124
0.00356 1.63030 2.3803
0.00358 1.57189 2.32189
0.00360 1.51573 2.26573
0.00362 1.46165 2.21165
0.00364 1.40948 2.15948
0.00366 1.35909 2.10909
0.00368 1.31030 2.0603
0.00370 1.26306 2.01306
0.00372 1.21779 1.96779
0.00374 1.17484 1.92484
0.00376 1.13417 1.88417
0.00378 1.09530 1.8453
0.00380 1.05803 1.80803
0.00382 1.02253 1.77253
0.00384 0.98863 1.73863
0.00386 0.95588 1.70588
0.00388 0.92378 1.67378
0.00390 0.89192 1.64192
0.00392 0.86054 1.61054
0.00394 0.83002 1.58002
0.00396 0.80036 1.55036
0.00398 0.77173 1.52173
0.00400 0.74450 1.4945
0.00402 0.71853 1.46853
0.00404 0.69342 1.44342
0.00406 0.66914 1.41914
0.00408 0.64622 1.39622
0.00410 0.62479 1.37479
0.00412 0.60484 1.35484
0.00414 0.58613 1.33613
0.00416 0.56827 1.31827
0.00418 0.55112 1.30112
0.00420 0.53461 1.28461
0.00422 0.51857 1.26857
0.00424 0.50301 1.25301
0.00426 0.48789 1.23789
0.00428 0.47324 1.22324
0.00430 0.45925 1.20925
0.00432 0.44610 1.1961
0.00434 0.43362 1.18362
0.00436 0.42154 1.17154
0.00438 0.40976 1.15976
0.00440 0.39825 1.14825
0.00442 0.38698 1.13698
0.00444 0.37605 1.12605
0.00446 0.36565 1.11565
0.00448 0.35572 1.10572
0.00450 0.34614 1.09614
0.00452 0.33688 1.08688
0.00454 0.32805 1.07805
0.00456 0.31974 1.06974
0.00458 0.31193 1.06193
0.00460 0.30451 1.05451
0.00462 0.29744 1.04744
0.00464 0.29067 1.04067
0.00466 0.28414 1.03414
0.00468 0.27776 1.02776
0.00470 0.27156 1.02156
0.00472 0.26570 1.0157
0.00474 0.26011 1.01011
0.00476 0.25464 1.00464
0.00478 0.24930 0.9993
0.00480 0.24424 0.99424
0.00482 0.23944 0.98944
0.00484 0.23486 0.98486
0.00486 0.23049 0.98049
0.00488 0.22629 0.97629
0.00490 0.22221 0.97221
0.00492 0.21827 0.96827
0.00494 0.21447 0.96447
0.00496 0.21081 0.96081
0.00498 0.20729 0.95729
0.00500 0.20394 0.95394
0.00502 0.20073 0.95073
0.00504 0.19766 0.94766
0.00506 0.19468 0.94468
0.00508 0.19178 0.94178
0.00510 0.18893 0.93893
0.00512 0.18610 0.9361
0.00514 0.18328 0.93328
0.00516 0.18054 0.93054
0.00518 0.17791 0.92791
0.00520 0.17536 0.92536
0.00522 0.17288 0.92288
0.00524 0.17048 0.92048
0.00526 0.16814 0.91814
0.00528 0.16585 0.91585
0.00530 0.16363 0.91363
0.00532 0.16147 0.91147
0.00534 0.15936 0.90936
0.00536 0.15728 0.90728
0.00538 0.15523 0.90523
0.00540 0.15320 0.9032
0.00542 0.15122 0.90122
0.00544 0.14930 0.8993
0.00546 0.14746 0.89746
0.00548 0.14567 0.89567
0.00550 0.14391 0.89391
0.00552 0.14218 0.89218
0.00554 0.14047 0.89047
0.00556 0.13879 0.88879
0.00558 0.13716 0.88716
0.00560 0.13557 0.88557
0.00562 0.13402 0.88402
0.00564 0.13250 0.8825
0.00566 0.13101 0.88101
0.00568 0.12954 0.87954
0.00570 0.12808 0.87808
0.00572 0.12664 0.87664
0.00574 0.12522 0.87522
0.00576 0.12382 0.87382
0.00578 0.12245 0.87245
0.00580 0.12110 0.8711
0.00582 0.11977 0.86977
0.00584 0.11847 0.86847
0.00586 0.11719 0.86719
0.00588 0.11595 0.86595
0.00590 0.11473 0.86473
0.00592 0.11351 0.86351
0.00594 0.11232 0.86232
0.00596 0.11116 0.86116
0.00598 0.11002 0.86002
0.00600 0.10890 0.8589
0.00602 0.10780 0.8578
0.00604 0.10673 0.85673
0.00606 0.10567 0.85567
0.00608 0.10462 0.85462
0.00610 0.10358 0.85358
0.00612 0.10255 0.85255
0.00614 0.10154 0.85154
0.00616 0.10055 0.85055
0.00618 0.09957 0.84957
0.00620 0.09860 0.8486
0.00622 0.09765 0.84765
0.00624 0.09671 0.84671
0.00626 0.09580 0.8458
0.00628 0.09489 0.84489
0.00630 0.09401 0.84401
0.00632 0.09313 0.84313
0.00634 0.09227 0.84227
0.00636 0.09141 0.84141
0.00638 0.09056 0.84056
0.00640 0.08972 0.83972
0.00642 0.08890 0.8389
0.00644 0.08809 0.83809
0.00646 0.08728 0.83728
0.00648 0.08649 0.83649
0.00650 0.08571 0.83571
0.00652 0.08494 0.83494
0.00654 0.08418 0.83418
0.00656 0.08343 0.83343
0.00658 0.08269 0.83269
0.00660 0.08196 0.83196
0.00662 0.08125 0.83125
0.00664 0.08054 0.83054
0.00666 0.07984 0.82984
0.00668 0.07915 0.82915
0.00670 0.07847 0.82847
0.00672 0.07780 0.8278
0.00674 0.07714 0.82714
0.00676 0.07648 0.82648
0.00678 0.07583 0.82583
0.00680 0.07519 0.82519
0.00682 0.07456 0.82456
0.00684 0.07395 0.82395
0.00686 0.07334 0.82334
0.00688 0.07274 0.82274
0.00690 0.07214 0.82214
0.00692 0.07156 0.82156
0.00694 0.07098 0.82098
0.00696 0.07041 0.82041
0.00698 0.06984 0.81984
0.00700 0.06928 0.81928
0.00702 0.06873 0.81873
0.00704 0.06818 0.81818
0.00706 0.06763 0.81763
0.00708 0.06710 0.8171
0.00710 0.06657 0.81657
0.00712 0.06606 0.81606
0.00714 0.06554 0.81554
0.00716 0.06504 0.81504
0.00718 0.06454 0.81454
0.00720 0.06404 0.81404
0.00722 0.06356 0.81356
0.00724 0.06308 0.81308
0.00726 0.06260 0.8126
0.00728 0.06213 0.81213
0.00730 0.06166 0.81166
0.00732 0.06120 0.8112
0.00734 0.06074 0.81074
0.00736 0.06030 0.8103
0.00738 0.05986 0.80986
0.00740 0.05943 0.80943
0.00742 0.05900 0.809
0.00744 0.05858 0.80858
0.00746 0.05817 0.80817
0.00748 0.05776 0.80776
0.00750 0.05735 0.80735
0.00752 0.05695 0.80695
0.00754 0.05655 0.80655
0.00756 0.05616 0.80616
0.00758 0.05577 0.80577
0.00760 0.05539 0.80539
0.00762 0.05501 0.80501
0.00764 0.05464 0.80464
0.00766 0.05427 0.80427
0.00768 0.05390 0.8039
0.00770 0.05354 0.80354
0.00772 0.05318 0.80318
0.00774 0.05283 0.80283
0.00776 0.05248 0.80248
0.00778 0.05213 0.80213
0.00780 0.05179 0.80179
0.00782 0.05146 0.80146
0.00784 0.05112 0.80112
0.00786 0.05080 0.8008
0.00788 0.05047 0.80047
0.00790 0.05015 0.80015
0.00792 0.04984 0.79984
0.00794 0.04952 0.79952
0.00796 0.04922 0.79922
0.00798 0.04892 0.79892
0.00800 0.04862 0.79862
0.00802 0.04833 0.79833
0.00804 0.04803 0.79803
0.00806 0.04775 0.79775
0.00808 0.04746 0.79746
0.00810 0.04718 0.79718
0.00812 0.04690 0.7969
0.00814 0.04663 0.79663
0.00816 0.04636 0.79636
0.00818 0.04609 0.79609
0.00820 0.04582 0.79582
0.00822 0.04556 0.79556
0.00824 0.04530 0.7953
0.00826 0.04504 0.79504
0.00828 0.04479 0.79479
0.00830 0.04454 0.79454
0.00832 0.04429 0.79429
0.00834 0.04404 0.79404
0.00836 0.04379 0.79379
0.00838 0.04355 0.79355
0.00840 0.04331 0.79331
0.00842 0.04307 0.79307
0.00844 0.04284 0.79284
0.00846 0.04260 0.7926
0.00848 0.04237 0.79237
0.00850 0.04215 0.79215
0.00852 0.04192 0.79192
0.00854 0.04170 0.7917
0.00856 0.04148 0.79148
0.00858 0.04127 0.79127
0.00860 0.04105 0.79105
0.00862 0.04084 0.79084
0.00864 0.04063 0.79063
0.00866 0.04042 0.79042
0.00868 0.04022 0.79022
0.00870 0.04002 0.79002
0.00872 0.03982 0.78982
0.00874 0.03962 0.78962
0.00876 0.03942 0.78942
0.00878 0.03922 0.78922
0.00880 0.03903 0.78903
0.00882 0.03884 0.78884
0.00884 0.03865 0.78865
0.00886 0.03846 0.78846
0.00888 0.03828 0.78828
0.00890 0.03809 0.78809
0.00892 0.03791 0.78791
0.00894 0.03773 0.78773
0.00896 0.03755 0.78755
0.00898 0.03737 0.78737
0.00900 0.03719 0.78719
0.00902 0.03702 0.78702
0.00904 0.03685 0.78685
0.00906 0.03668 0.78668
0.00908 0.03651 0.78651
0.00910 0.03634 0.78634
0.00912 0.03618 0.78618
0.00914 0.03602 0.78602
0.00916 0.03586 0.78586
0.00918 0.03570 0.7857
0.00920 0.03554 0.78554
0.00922 0.03538 0.78538
0.00924 0.03523 0.78523
0.00926 0.03507 0.78507
0.00928 0.03492 0.78492
0.00930 0.03477 0.78477
0.00932 0.03462 0.78462
0.00934 0.03447 0.78447
0.00936 0.03433 0.78433
0.00938 0.03418 0.78418
0.00940 0.03404 0.78404
0.00942 0.03389 0.78389
0.00944 0.03375 0.78375
0.00946 0.03361 0.78361
0.00948 0.03347 0.78347
0.00950 0.03334 0.78334
0.00952 0.03320 0.7832
0.00954 0.03307 0.78307
0.00956 0.03294 0.78294
0.00958 0.03281 0.78281
0.00960 0.03268 0.78268
0.00962 0.03255 0.78255
0.00964 0.03243 0.78243
0.00966 0.03230 0.7823
0.00968 0.03218 0.78218
0.00970 0.03205 0.78205
0.00972 0.03193 0.78193
0.00974 0.03181 0.78181
0.00976 0.03169 0.78169
0.00978 0.03158 0.78158
0.00980 0.03146 0.78146
0.00982 0.03134 0.78134
0.00984 0.03123 0.78123
0.00986 0.03112 0.78112
0.00988 0.03100 0.781
0.00990 0.03089 0.78089
0.00992 0.03078 0.78078
0.00994 0.03067 0.78067
0.00996 0.03056 0.78056
0.00998 0.03045 0.78045
0.01000 0.03035 0.78035
0.01002 0.03024 0.78024
0.01004 0.03014 0.78014
0.01006 0.03004 0.78004
0.01008 0.02994 0.77994
0.01010 0.02984 0.77984
0.01012 0.02974 0.77974
0.01014 0.02964 0.77964
0.01016 0.02954 0.77954
0.01018 0.02945 0.77945
0.01020 0.02936 0.77936
0.01022 0.02926 0.77926
0.01024 0.02917 0.77917
0.01026 0.02908 0.77908
0.01028 0.02899 0.77899
0.01030 0.02890 0.7789
0.01032 0.02882 0.77882
0.01034 0.02873 0.77873
0.01036 0.02865 0.77865
0.01038 0.02857 0.77857
0.01040 0.02849 0.77849
0.01042 0.02841 0.77841
0.01044 0.02833 0.77833
0.01046 0.02825 0.77825
0.01048 0.02817 0.77817
0.01050 0.02809 0.77809
0.01052 0.02802 0.77802
0.01054 0.02794 0.77794
0.01056 0.02787 0.77787
0.01058 0.02780 0.7778
0.01060 0.02773 0.77773
0.01062 0.02766 0.77766
0.01064 0.02759 0.77759
0.01066 0.02752 0.77752
0.01068 0.02746 0.77746
0.01070 0.02739 0.77739
0.01072 0.02733 0.77733
0.01074 0.02727 0.77727
0.01076 0.02722 0.77722
0.01078 0.02716 0.77716
0.01080 0.02710 0.7771
0.01082 0.02705 0.77705
0.01084 0.02699 0.77699
0.01086 0.02694 0.77694
0.01088 0.02689 0.77689
0.01090 0.02684 0.77684
0.01092 0.02679 0.77679
0.01094 0.02674 0.77674
0.01096 0.02669 0.77669
0.01098 0.02665 0.77665
0.01100 0.02661 0.77661
0.01102 0.02657 0.77657
0.01104 0.02653 0.77653
0.01106 0.02649 0.77649
0.01108 0.02645 0.77645
0.01110 0.02642 0.77642
0.01112 0.02638 0.77638
0.01114 0.02635 0.77635
0.01116 0.02632 0.77632
0.01118 0.02629 0.77629
0.01120 0.02626 0.77626
0.01122 0.02624 0.77624
0.01124 0.02621 0.77621
0.01126 0.02619 0.77619
0.01128 0.02617 0.77617
0.01130 0.02615 0.77615
0.01132 0.02613 0.77613
0.01134 0.02611 0.77611
0.01136 0.02610 0.7761
0.01138 0.02608 0.77608
0.01140 0.02606 0.77606
0.01142 0.02605 0.77605
0.01144 0.02604 0.77604
0.01146 0.02603 0.77603
0.01148 0.02602 0.77602
0.01150 0.02601 0.77601
0.01152 0.02600 0.776
0.01154 0.02600 0.776
0.01156 0.02600 0.776
0.01158 0.02599 0.77599
0.01160 0.02599 0.77599
0.01162 0.02599 0.77599
0.01164 0.02599 0.77599
0.01166 0.02600 0.776
0.01168 0.02600 0.776
0.01170 0.02601 0.77601
0.01172 0.02602 0.77602
0.01174 0.02603 0.77603
0.01176 0.02604 0.77604
0.01178 0.02605 0.77605
0.01180 0.02606 0.77606
0.01182 0.02608 0.77608
0.01184 0.02609 0.77609
0.01186 0.02611 0.77611
0.01188 0.02613 0.77613
0.01190 0.02615 0.77615
0.01192 0.02617 0.77617
0.01194 0.02620 0.7762
0.01196 0.02623 0.77623
0.01198 0.02625 0.77625
0.01200 0.02629 0.77629
0.01202 0.02632 0.77632
0.01204 0.02636 0.77636
0.01206 0.02639 0.77639
0.01208 0.02643 0.77643
0.01210 0.02647 0.77647
0.01212 0.02650 0.7765
0.01214 0.02654 0.77654
0.01216 0.02658 0.77658
0.01218 0.02662 0.77662
0.01220 0.02666 0.77666
0.01222 0.02671 0.77671
0.01224 0.02675 0.77675
0.01226 0.02680 0.7768
0.01228 0.02685 0.77685
0.01230 0.02690 0.7769
0.01232 0.02695 0.77695
0.01234 0.02700 0.777
0.01236 0.02706 0.77706
0.01238 0.02712 0.77712
0.01240 0.02717 0.77717
0.01242 0.02723 0.77723
0.01244 0.02729 0.77729
0.01246 0.02735 0.77735
0.01248 0.02742 0.77742
0.01250 0.02749 0.77749
0.01252 0.02755 0.77755
0.01254 0.02762 0.77762
0.01256 0.02769 0.77769
0.01258 0.02777 0.77777
0.01260 0.02784 0.77784
0.01262 0.02792 0.77792
0.01264 0.02800 0.778
0.01266 0.02808 0.77808
0.01268 0.02816 0.77816
0.01270 0.02824 0.77824
0.01272 0.02833 0.77833
0.01274 0.02841 0.77841
0.01276 0.02849 0.77849
0.01278 0.02858 0.77858
0.01280 0.02867 0.77867
0.01282 0.02876 0.77876
0.01284 0.02885 0.77885
0.01286 0.02894 0.77894
0.01288 0.02903 0.77903
0.01290 0.02912 0.77912
0.01292 0.02922 0.77922
0.01294 0.02932 0.77932
0.01296 0.02941 0.77941
0.01298 0.02951 0.77951
0.01300 0.02962 0.77962
0.01302 0.02972 0.77972
0.01304 0.02982 0.77982
0.01306 0.02993 0.77993
0.01308 0.03004 0.78004
0.01310 0.03014 0.78014
0.01312 0.03025 0.78025
0.01314 0.03036 0.78036
0.01316 0.03048 0.78048
0.01318 0.03059 0.78059
0.01320 0.03071 0.78071
0.01322 0.03082 0.78082
0.01324 0.03095 0.78095
0.01326 0.03107 0.78107
0.01328 0.03120 0.7812
0.01330 0.03133 0.78133
0.01332 0.03146 0.78146
0.01334 0.03159 0.78159
0.01336 0.03173 0.78173
0.01338 0.03186 0.78186
0.01340 0.03199 0.78199
0.01342 0.03213 0.78213
0.01344 0.03227 0.78227
0.01346 0.03241 0.78241
0.01348 0.03255 0.78255
0.01350 0.03269 0.78269
0.01352 0.03284 0.78284
0.01354 0.03298 0.78298
0.01356 0.03313 0.78313
0.01358 0.03327 0.78327
0.01360 0.03342 0.78342
0.01362 0.03357 0.78357
0.01364 0.03372 0.78372
0.01366 0.03387 0.78387
0.01368 0.03402 0.78402
0.01370 0.03418 0.78418
0.01372 0.03433 0.78433
0.01374 0.03449 0.78449
0.01376 0.03465 0.78465
0.01378 0.03481 0.78481
0.01380 0.03497 0.78497
0.01382 0.03513 0.78513
0.01384 0.03529 0.78529
0.01386 0.03546 0.78546
0.01388 0.03562 0.78562
0.01390 0.03579 0.78579
0.01392 0.03596 0.78596
0.01394 0.03613 0.78613
0.01396 0.03631 0.78631
0.01398 0.03648 0.78648
0.01400 0.03665 0.78665
0.01402 0.03682 0.78682
0.01404 0.03699 0.78699
0.01406 0.03717 0.78717
0.01408 0.03734 0.78734
0.01410 0.03752 0.78752
0.01412 0.03770 0.7877
0.01414 0.03787 0.78787
0.01416 0.03805 0.78805
0.01418 0.03823 0.78823
0.01420 0.03841 0.78841
0.01422 0.03859 0.78859
0.01424 0.03877 0.78877
0.01426 0.03896 0.78896
0.01428 0.03915 0.78915
0.01430 0.03933 0.78933
0.01432 0.03952 0.78952
0.01434 0.03971 0.78971
0.01436 0.03990 0.7899
0.01438 0.04009 0.79009
0.01440 0.04029 0.79029
0.01442 0.04048 0.79048
0.01444 0.04067 0.79067
0.01446 0.04086 0.79086
0.01448 0.04106 0.79106
0.01450 0.04125 0.79125
0.01452 0.04145 0.79145
0.01454 0.04164 0.79164
0.01456 0.04184 0.79184
0.01458 0.04204 0.79204
0.01460 0.04224 0.79224
0.01462 0.04245 0.79245
0.01464 0.04265 0.79265
0.01466 0.04286 0.79286
0.01468 0.04307 0.79307
0.01470 0.04327 0.79327
0.01472 0.04348 0.79348
0.01474 0.04369 0.79369
0.01476 0.04389 0.79389
0.01478 0.04410 0.7941
0.01480 0.04431 0.79431
0.01482 0.04452 0.79452
0.01484 0.04473 0.79473
0.01486 0.04495 0.79495
0.01488 0.04516 0.79516
0.01490 0.04538 0.79538
0.01492 0.04559 0.79559
0.01494 0.04581 0.79581
0.01496 0.04603 0.79603
0.01498 0.04625 0.79625
0.01500 0.04648 0.79648
0.01502 0.04670 0.7967
0.01504 0.04693 0.79693
0.01506 0.04716 0.79716
0.01508 0.04739 0.79739
0.01510 0.04763 0.79763
0.01512 0.04787 0.79787
0.01514 0.04810 0.7981
0.01516 0.04834 0.79834
0.01518 0.04858 0.79858
0.01520 0.04882 0.79882
0.01522 0.04906 0.79906
0.01524 0.04930 0.7993
0.01526 0.04954 0.79954
0.01528 0.04978 0.79978
0.01530 0.05002 0.80002
0.01532 0.05027 0.80027
0.01534 0.05052 0.80052
0.01536 0.05076 0.80076
0.01538 0.05101 0.80101
0.01540 0.05126 0.80126
0.01542 0.05151 0.80151
0.01544 0.05175 0.80175
0.01546 0.05200 0.802
0.01548 0.05225 0.80225
0.01550 0.05250 0.8025
0.01552 0.05276 0.80276
0.01554 0.05301 0.80301
0.01556 0.05326 0.80326
0.01558 0.05352 0.80352
0.01560 0.05378 0.80378
0.01562 0.05404 0.80404
0.01564 0.05430 0.8043
0.01566 0.05457 0.80457
0.01568 0.05483 0.80483
0.01570 0.05510 0.8051
0.01572 0.05537 0.80537
0.01574 0.05565 0.80565
0.01576 0.05592 0.80592
0.01578 0.05620 0.8062
0.01580 0.05648 0.80648
0.01582 0.05675 0.80675
0.01584 0.05703 0.80703
0.01586 0.05731 0.80731
0.01588 0.05759 0.80759
0.01590 0.05788 0.80788
0.01592 0.05817 0.80817
0.01594 0.05846 0.80846
0.01596 0.05875 0.80875
0.01598 0.05905 0.80905
0.01600 0.05934 0.80934
0.01602 0.05963 0.80963
0.01604 0.05992 0.80992
0.01606 0.06022 0.81022
0.01608 0.06051 0.81051
0.01610 0.06081 0.81081
0.01612 0.06110 0.8111
0.01614 0.06140 0.8114
0.01616 0.06169 0.81169
0.01618 0.06199 0.81199
0.01620 0.06228 0.81228
0.01622 0.06257 0.81257
0.01624 0.06287 0.81287
0.01626 0.06316 0.81316
0.01628 0.06346 0.81346
0.01630 0.06376 0.81376
0.01632 0.06406 0.81406
0.01634 0.06437 0.81437
0.01636 0.06467 0.81467
0.01638 0.06498 0.81498
0.01640 0.06528 0.81528
0.01642 0.06558 0.81558
0.01644 0.06589 0.81589
0.01646 0.06619 0.81619
0.01648 0.06650 0.8165
0.01650 0.06680 0.8168
0.01652 0.06710 0.8171
0.01654 0.06740 0.8174
0.01656 0.06770 0.8177
0.01658 0.06800 0.818
0.01660 0.06830 0.8183
