# XXZ chain with NNN perturbation
# L = 16, full Hilbert space, J = 1, Delta = 0.5, g = 0.05
# Normalized cumlative spectral function for the O3 operator
# omega, R_3(omega)

4.961947603002903606e-01 1.000000000000000000e+00
4.774520538566129346e-01 1.000000000000000000e+00
4.594173134636476141e-01 1.000000000000000000e+00
4.420637972028532148e-01 1.000000000000000000e+00
4.253657732750387721e-01 1.000000000000000000e+00
4.092984818452440332e-01 1.000000000000000000e+00
3.938380983288489179e-01 1.000000000000000000e+00
3.789616980644718303e-01 1.000000000000000000e+00
3.646472223212748887e-01 1.000000000000000000e+00
3.508734455902713378e-01 1.000000000000000000e+00
3.376199441111340516e-01 1.000000000000000000e+00
3.248670655878376778e-01 1.000000000000000000e+00
3.125959000482280703e-01 1.000000000000000000e+00
3.007882518043100695e-01 1.000000000000000000e+00
2.894266124716751709e-01 1.000000000000000000e+00
2.784941350080645805e-01 1.000000000000000000e+00
2.679746087325692305e-01 1.000000000000000000e+00
2.578524352884274951e-01 1.000000000000000000e+00
2.481126055137770070e-01 1.000000000000000000e+00
2.387406771860647314e-01 1.000000000000000000e+00
2.297227536071152210e-01 1.000000000000000000e+00
2.210454629971021490e-01 1.000000000000000000e+00
2.126959386668690888e-01 1.000000000000000000e+00
2.046617999391990017e-01 9.979612678013937144e-01
1.969311337907422854e-01 9.960179110496912847e-01
1.894924771873821578e-01 9.945112376791840347e-01
1.823348000868441343e-01 9.930488423466328207e-01
1.754474890833459533e-01 9.917462087867259246e-01
1.688203316700363499e-01 9.907087347352049322e-01
1.624435010958867054e-01 9.897671558900508204e-01
1.563075417945816725e-01 9.889430255693497651e-01
1.504033553638025045e-01 9.881541634433887999e-01
1.447221870741135230e-01 9.874660563299522131e-01
1.392556128874463395e-01 9.868078204569458167e-01
1.339955269659339199e-01 9.861816664965006307e-01
1.289341296525715608e-01 9.855965054747428677e-01
1.240639159058832403e-01 9.850641110595766969e-01
1.193776641714437009e-01 9.845224105420962157e-01
1.148684256737554227e-01 9.840027041378474060e-01
1.105295141126022146e-01 9.834527950001942243e-01
1.063544957486011189e-01 9.827450376219757366e-01
1.023371798632519702e-01 9.820468362222604108e-01
9.847160957933774605e-02 9.809868651155111419e-01
9.475205302806546936e-02 9.800857638280545681e-01
9.117299484984922597e-02 9.782579271476966598e-01
8.772912801613363953e-02 9.762292525376881080e-01
8.441534596012983949e-02 9.743656448759040467e-01
8.122673500479719866e-02 9.708025612873090182e-01
7.815856707684090687e-02 9.679827003481228376e-01
7.520629269592414567e-02 9.635207422705195368e-01
7.236553422869657082e-02 9.582531594390719665e-01
6.963207939763883803e-02 9.521271501672720072e-01
6.700187503509590081e-02 9.449939090542021081e-01
6.447102107323869624e-02 9.374158468003697120e-01
6.203576476104274290e-02 9.287206642928372835e-01
5.969249509970733780e-02 9.182718417006416889e-01
5.743773748826586784e-02 9.080618128913148235e-01
5.526814857144603244e-02 8.957794614024714441e-01
5.318051128214202478e-02 8.828020387405892677e-01
5.117173007114604599e-02 8.725188993016554928e-01
4.923882631706741342e-02 8.589821829489031613e-01
4.737893390963143769e-02 8.437515592201277892e-01
4.558929499981063949e-02 8.312487867512481365e-01
4.386725591048498685e-02 8.168216742726684965e-01
4.221026320156903017e-02 8.015793811757355725e-01
4.061585988376979761e-02 7.860829948984414672e-01
3.908168177536268384e-02 7.692061972280928028e-01
3.760545399658171695e-02 7.497601759709348057e-01
3.618498759642750640e-02 7.296510882646046747e-01
3.481817630688966575e-02 7.095150769882758723e-01
3.350299341977233669e-02 6.874807375386625674e-01
3.223748878149030467e-02 6.642879887170103359e-01
3.101978590138097097e-02 6.419580572748534442e-01
2.984807916924327523e-02 6.200960383117293251e-01
2.872063117797828483e-02 6.009560264545733554e-01
2.763577014736159909e-02 5.839453712591707868e-01
2.659188744512694033e-02 5.666241781227577823e-01
2.558743520168589233e-02 5.509910224078943264e-01
2.462092401494625840e-02 5.362764856451205375e-01
2.369092074182634414e-02 5.211603918534316593e-01
2.279604637318979887e-02 5.072909822948037384e-01
2.193497398905060181e-02 4.948999450172513193e-01
2.110642679101554578e-02 4.834517446402316065e-01
2.030917620904736792e-02 4.728456016820596908e-01
1.954204007974053373e-02 4.604127133309589004e-01
1.880388089340916460e-02 4.455761365400617291e-01
1.809360410738716438e-02 4.332409677119281044e-01
1.741015652304017322e-02 4.201613777056817933e-01
1.675252472408215315e-02 4.046759837514574132e-01
1.611973357388158529e-02 3.909151319304739469e-01
1.551084476952840734e-02 3.784709563140593591e-01
1.492495545051830512e-02 3.651500669267325194e-01
1.436119685999078660e-02 3.512275257266806450e-01
1.381873305653632047e-02 3.365102774626967941e-01
1.329675967466212479e-02 3.216950200861608544e-01
1.279450273207873370e-02 3.088905707365956488e-01
1.231121748203890809e-02 2.962883020032075487e-01
1.184618730902683471e-02 2.826009739325769932e-01
1.139872266616052607e-02 2.701910485201394763e-01
1.096816005273137939e-02 2.610707877248831799e-01
1.055386103036524102e-02 2.488359402064688752e-01
1.015521127634568151e-02 2.352544894882822868e-01
9.771619672696182229e-03 2.241034763512080308e-01
9.402517429670131932e-03 2.120780550434628042e-01
9.047357242349302747e-03 2.015424598968890146e-01
8.705612479099865408e-03 1.879777542509164234e-01
8.376776400682925047e-03 1.795714023056820541e-01
8.060361408861346083e-03 1.710588523002263550e-01
7.755898323389008933e-03 1.642970350893935838e-01
7.462935686310137595e-03 1.543456882946828701e-01
7.181039092537355555e-03 1.457981241858611332e-01
6.909790545715645271e-03 1.388087083945502009e-01
6.648787838417269391e-03 1.311908126860719948e-01
6.397643955748430651e-03 1.258684011819267978e-01
6.155986501483514013e-03 1.206677139780931302e-01
5.923457145875806254e-03 1.161860569124498060e-01
5.699711094326075263e-03 1.104890918647076226e-01
5.484416576121020452e-03 1.048191951394955856e-01
5.277254352483537470e-03 1.018337561737946984e-01
5.077917243205404101e-03 9.735829726711495158e-02
4.886109671160326559e-03 9.378128176742824007e-02
4.701547224022134541e-03 8.753071513310441143e-02
4.523956232538053034e-03 8.261045154540008761e-02
4.353073364731892096e-03 7.956155016090921128e-02
4.188645235435271494e-03 7.620172198243514716e-02
4.030428030568054994e-03 7.301799511643300433e-02
3.878187145610723519e-03 7.065438420503031280e-02
3.731696837732756053e-03 6.814382698913304393e-02
3.590739891061055147e-03 6.568462364514701668e-02
3.455107294592221507e-03 6.234538235670337297e-02
3.324597932270941750e-03 5.979013948900234465e-02
3.199018284775066896e-03 5.821386412957330753e-02
3.078182142565080021e-03 5.700193642000853794e-02
2.961910329772556374e-03 5.405990319897190782e-02
2.850030438518108469e-03 5.217078710216016546e-02
2.742376573264952364e-03 5.002227016698929107e-02
2.638789104828934487e-03 4.787874080171967972e-02
2.539114433680347144e-03 4.661570278269325240e-02
2.443204762186489305e-03 4.501893850433588001e-02
2.350917875457286636e-03 4.371353792370098051e-02
2.262116930469026694e-03 4.234491269987761264e-02
2.176670253153459040e-03 4.099866851028307474e-02
2.094451143151470924e-03 3.944024639495019580e-02
2.015337685941733393e-03 3.604992570933795992e-02
1.939212572065830958e-03 3.467996159514678822e-02
1.865962923181745982e-03 3.350771169908531993e-02
1.795480124687832231e-03 3.151693999513431599e-02
1.727659664669036485e-03 3.057327371760535858e-02
1.662400978926613674e-03 2.944923245996081129e-02
1.599607301861487915e-03 2.835497158803095344e-02
1.539185522990207120e-03 2.724892944364932026e-02
1.481046048880675517e-03 2.625114338084462776e-02
1.425102670302999227e-03 2.569211578787639408e-02
1.371272434398400917e-03 2.491805619699958424e-02
1.319475521676707333e-03 2.395725039030124209e-02
1.269635127659974033e-03 2.314662275502266109e-02
1.221677348996793059e-03 2.255504913333187395e-02
1.175531073878369843e-03 2.184983920189285597e-02
1.131127876593921366e-03 2.105853190865315111e-02
1.088401916069006584e-03 2.066959964603739056e-02
1.047289838236358439e-03 1.986299136997022458e-02
1.007730682094461726e-03 1.957845994248177263e-02
9.696657893145520669e-04 1.868350048814173409e-02
9.330387172620359729e-04 1.829691233479366005e-02
8.977951553033331877e-04 1.749187607760076257e-02
8.638828442740453762e-04 1.710108173901657425e-02
8.312514989890631501e-04 1.668866916649341947e-02
7.998527336796707127e-04 1.591858575503294834e-02
7.696399902471166409e-04 1.531927503676861445e-02
7.405684692262441650e-04 1.504686552801869776e-02
7.125950633568410445e-04 1.458948592230050259e-02
6.856782936641738196e-04 1.347897624966722975e-02
6.597782479539546479e-04 1.320325162675744894e-02
6.348565216305223540e-04 1.232025030222081048e-02
6.108761607505039425e-04 1.227182875331632970e-02
5.878016072274911547e-04 1.202623315509994233e-02
5.655986461065013642e-04 1.084936222372791421e-02
5.442343548300272249e-04 1.014521328302931541e-02
5.236770544204654831e-04 9.975480236209250187e-03
5.038962625065149942e-04 9.568074894271296968e-03
4.848626481239078079e-04 9.391661621081726780e-03
4.665479882234477250e-04 9.009406974500077173e-03
4.489251258218607721e-04 8.712254133649540225e-03
4.319679297334173764e-04 8.103747456124745299e-03
4.156512558225987906e-04 7.832101690965036223e-03
3.999509097203669534e-04 7.484476302472797132e-03
3.848436109487432576e-04 7.364254278417584759e-03
3.703069584005141035e-04 7.012840225251001230e-03
3.563193971228584300e-04 6.946140264655734781e-03
3.428601863556590473e-04 6.848056979885499933e-03
3.299093687770942316e-04 6.761128702834905656e-03
3.174477409109193664e-04 6.626093731747487690e-03
3.054568246515431892e-04 6.463456284970334892e-03
2.939188398646890260e-04 6.409392766879173746e-03
2.828166780230034890e-04 6.035120815486130601e-03
2.721338768375308921e-04 5.816592271017579675e-03
2.618545958474232716e-04 5.486233486618210219e-03
2.519635929317018516e-04 4.994537611777042502e-03
2.424462017082330725e-04 4.869991090213673934e-03
2.332883097864158189e-04 4.490465810329050296e-03
2.244763378413223921e-04 4.460551043235764027e-03
2.159972194782717103e-04 4.347352408876020355e-03
2.078383818579759422e-04 4.231203765502331883e-03
1.999877270535287046e-04 4.107528322236136259e-03
1.924336141115980190e-04 4.071286864419511146e-03
1.851648417912154056e-04 3.923118334172122010e-03
1.781706319545732628e-04 3.499170825446942801e-03
1.714406135851972166e-04 3.478736144667119497e-03
1.649648074098020503e-04 3.304201911618539003e-03
1.587336111010208468e-04 3.192831183878756980e-03
1.527377850390715483e-04 3.007106660724653650e-03
1.469684386112447426e-04 2.993548288042778820e-03
1.414170170289023951e-04 2.976806327161153447e-03
1.360752886424333198e-04 2.966661647861286964e-03
1.309353327353612287e-04 2.878436420275193395e-03
1.259895277795028434e-04 2.874972387604702185e-03
1.212305401337652864e-04 2.766046084592245404e-03
1.166513131698196175e-04 2.516868253297940144e-03
1.122450568085308140e-04 2.393798254182411597e-03
1.080052374516253993e-04 2.332245526108325893e-03
1.039255682936713091e-04 2.196981085882829688e-03
1.000000000000000048e-04 2.136903745841014276e-03
1.000000000000000082e-05 2.442566703093460479e-04
9.999999999999999547e-07 1.844486186149455526e-07
9.999999999999999547e-08 1.844486186149455526e-07
1.000000000000000021e-08 1.590504605307982314e-19
